Date,Open,High,Low,Close,Volume,Dividends,Stock Splits
2019-07-29,120.06616517989566,121.23354862335515,119.18822434698082,120.53890991210938,277400,0.0,0
2019-07-30,119.78420634068267,120.5292260054733,118.9714502335426,119.79387664794922,221700,0.36,0
2019-07-31,119.48426323943475,119.84226393857391,116.04942159329292,117.0943832397461,621400,0.0,0
2019-08-01,116.29129811911108,116.29129811911108,111.11483466886439,113.7466049194336,533000,0.0,0
2019-08-02,112.82743720118839,114.50131579895516,111.89857830529948,114.19169616699219,316600,0.0,0
2019-08-05,112.66295676244047,115.16893958030829,112.47911756292068,113.28219604492188,462500,0.0,0
2019-08-06,113.73694713876182,116.89119480588775,113.57245594355064,115.83655548095703,356400,0.0,0
2019-08-07,115.23665874779574,118.2941589015964,114.84963238401018,117.713623046875,268700,0.0,0
2019-08-08,118.50703544344086,119.977726912389,117.64589819278888,118.88438415527344,374300,0.0,0
2019-08-09,118.75857701443425,119.23268778606722,117.12340198975282,117.15242767333984,186400,0.0,0
2019-08-12,117.09438572052157,117.7329803786914,116.03006867215302,116.12682342529297,135600,0.0,0
2019-08-13,115.8945956845105,117.85874571092815,115.18827943341046,117.28788757324219,216300,0.0,0
2019-08-14,116.11713728781986,116.81378322652151,115.13021974735467,115.22697448730469,375800,0.0,0
2019-08-15,115.3817936459324,116.34935585679976,114.1239598190393,114.49163818359375,238400,0.0,0
2019-08-16,115.05282022187914,116.82345336801014,114.12395405031452,116.34934997558594,197800,0.0,0
2019-08-19,117.268534571899,117.53945818612982,116.1074628957074,116.32032775878906,206400,0.0,0
2019-08-20,116.20423860721688,116.20423860721688,114.61743691852692,115.02381134033203,141800,0.0,0
2019-08-21,115.77849529266524,115.94297909343942,115.03346827188903,115.45919799804688,298500,0.0,0
2019-08-22,115.94298318319099,116.80411297281198,115.17860813967869,116.62995147705078,227100,0.0,0
2019-08-23,116.63961795192884,117.39431523369578,116.00102340156405,116.35902404785156,296100,0.0,0
2019-08-26,116.80411483670116,117.29757364621788,116.02039178422652,117.06535339355469,237100,0.0,0
2019-08-27,117.53948226149353,117.87812762125395,116.89120985062048,117.55883026123047,183000,0.0,0
2019-08-28,117.54912671769401,118.17804360859652,116.71702265562244,117.9071273803711,221100,0.0,0
2019-08-29,118.89404695407573,119.4358868352884,117.22016839077965,117.7426528930664,184600,0.0,0
2019-08-30,118.41026113278816,119.3197719764752,117.29757049183439,118.25545501708984,183700,0.0,0
2019-09-03,116.8911900588944,117.15243599355836,114.72385274148067,115.7688217163086,262000,0.0,0
2019-09-04,116.81379341279307,118.09097528447975,116.2913089132057,117.98454284667969,160800,0.0,0
2019-09-05,119.00048444987134,119.21334933561783,117.05568955427343,117.26854705810547,230100,0.0,0
2019-09-06,117.0363377267527,117.88778991366712,116.41709843046681,116.95893096923828,239300,0.0,0
2019-09-09,117.62652820909629,117.62652820909629,114.91735128403319,115.23664855957031,232900,0.0,0
2019-09-10,115.12056507918929,115.44953271609046,112.35333632560805,115.24634552001953,258200,0.0,0
2019-09-11,115.04314442042097,115.65270593496525,112.9338585774741,114.78189849853516,231700,0.0,0
2019-09-12,115.21730624879856,115.81719007640464,114.15298932641699,114.22071838378906,163300,0.0,0
2019-09-13,114.70451540127631,115.11088980193544,113.84338553143999,114.55937957763672,269900,0.0,0
2019-09-16,113.90141992226003,113.90141992226003,112.11143138274794,112.70164489746094,192100,0.0,0
2019-09-17,112.43073182878985,114.0368887261309,112.30495139228927,113.21446228027344,216700,0.0,0
2019-09-18,113.09835720327621,115.09153318870055,112.77905987107293,114.4626235961914,253400,0.0,0
2019-09-19,114.49164719611048,115.09153108964485,113.82402685584604,114.02721405029297,304200,0.0,0
2019-09-20,114.30779543673307,115.15924749825562,113.7466076002708,114.22071838378906,527900,0.0,0
2019-09-23,113.79499295502137,115.11087816096158,113.79499295502137,114.26909637451172,164300,0.0,0
2019-09-24,114.75288669456653,115.61401654644293,114.4142413677468,114.66580963134766,187100,0.0,0
2019-09-25,114.85931552056415,115.56563922161517,114.82061214415863,115.25601959228516,202100,0.0,0
2019-09-26,115.69141693342603,115.7978493705557,114.6754736269752,115.0625,117900,0.0,0
2019-09-27,115.34310220955588,115.43985696427387,114.2304040755126,114.82061767578125,149100,0.0,0
2019-09-30,115.0915157592511,115.5366008480842,114.01752117315084,114.60773468017578,219700,0.0,0
2019-10-01,115.42050376259195,115.8462335224554,113.688566418137,113.8530502319336,143300,0.0,0
2019-10-02,113.20477837551107,113.22412637163575,111.3277053291235,111.6082992553711,225600,0.0,0
2019-10-03,111.26965693732518,111.49219949924199,110.08922983044904,111.25997924804688,241100,0.0,0
2019-10-04,111.5695985280591,113.80467230204496,111.35673365606864,113.52407836914062,162400,0.0,0
2019-10-07,112.90484055044857,113.64018254049279,112.4694331117474,112.779052734375,216100,0.0,0
2019-10-08,112.24689802134941,113.9401319487714,110.79555465498771,111.05679321289062,221900,0.0,0
2019-10-09,112.06305032144483,113.09834154887501,111.63732060410076,112.70164489746094,134700,0.0,0
2019-10-10,112.70164633274447,113.43698827690449,111.97597469543742,112.53715515136719,102400,0.0,0
2019-10-11,113.12737674008861,114.17234574398105,112.46943411340605,112.5565185546875,213700,0.0,0
2019-10-14,112.5468345767666,113.08866704543749,111.9856467302639,112.09207916259766,131900,0.0,0
2019-10-15,112.56619318497043,112.85646482450333,111.31804432795653,111.4438247680664,182500,0.0,0
2019-10-16,111.40509849048387,111.85017616620787,110.68910461057246,111.72439575195312,213700,0.0,0
2019-10-17,111.82116444714185,113.28218545291179,111.75343538763802,112.76937866210938,153800,0.0,0
2019-10-18,112.64360258029538,114.17235280476444,112.64360258029538,113.95948791503906,219100,0.0,0
2019-10-21,114.53034748476291,115.24634149092132,113.97883729130461,114.07559204101562,142900,0.0,0
2019-10-22,114.20137963069888,114.22073501100198,112.83712059591787,112.87582397460938,85400,0.0,0
2019-10-23,112.75001859603648,114.1046071117052,112.72099291201509,113.56277465820312,104800,0.0,0
2019-10-24,113.64018488093092,114.29812751530424,112.95321655976255,113.53375244140625,122500,0.0,0
2019-10-25,113.40797132616468,114.77223765268384,113.40797132616468,114.05623626708984,120300,0.0,0
2019-10-28,114.13365471606296,114.94641093432634,114.01754457576392,114.3658676147461,134100,0.0,0
2019-10-29,113.9873513990876,115.61782215355714,113.9873513990876,115.01610565185547,136600,0.36,0
2019-10-30,115.08403051068295,116.10307000602295,114.29790586631782,115.7342758178711,148200,0.0,0
2019-10-31,115.53047806502325,116.10308020253068,114.15234410964699,114.66671752929688,316000,0.0,0
2019-11-01,110.31878625033632,112.15306479382674,106.31054932279524,107.52369689941406,583300,0.0,0
2019-11-04,107.73721802169709,108.46510660796261,105.21387240353641,105.46620178222656,553700,0.0,0
2019-11-05,105.99028535698484,106.99962511279793,105.23328239124147,105.45650482177734,385300,0.0,0
2019-11-06,105.46620695798235,106.5725970710448,105.22357741732013,106.26203155517578,369800,0.0,0
2019-11-07,106.3008473057638,107.2713654148707,105.69913081697548,106.1746826171875,189400,0.0,0
2019-11-08,106.08733438602606,107.6595764217173,105.660311444003,105.7864761352539,303500,0.0,0
2019-11-11,105.28181014139597,106.52407216474553,105.28181014139597,105.37886047363281,181500,0.0,0
2019-11-12,105.43710350326404,106.07764911100813,104.97125888351081,105.02948760986328,185400,0.0,0
2019-11-13,105.12652233626449,106.82492904422953,104.83536393882707,106.38819885253906,385400,0.0,0
2019-11-14,106.2523390502192,107.3199076220431,106.2523390502192,107.21315002441406,224000,0.0,0
2019-11-15,107.46548093778819,107.46548093778819,106.4658409962791,106.71817779541016,307300,0.0,0
2019-11-18,106.67935922896274,107.67899179457761,106.64053761225865,107.08697509765625,352100,0.0,0
2019-11-19,107.46547095296793,108.11571629371122,107.19371966905554,107.24224853515625,258700,0.0,0
2019-11-20,106.8734455157893,108.55243752013187,106.8734455157893,107.43634033203125,961400,0.0,0
2019-11-21,107.95073315656725,108.74655771444648,106.9316861743411,108.01866912841797,244200,0.0,0
2019-11-22,108.35834267721837,108.3777497804174,106.75698640032054,106.87345123291016,151700,0.0,0
2019-11-25,107.00933310839049,107.78574318437697,106.92198262471832,107.67898559570312,264400,0.0,0
2019-11-26,108.23217639015034,109.32886659352023,107.69839587222653,109.24151611328125,221900,0.0,0
2019-11-27,109.65884961870611,110.23145920845909,109.30946247347595,109.50357055664062,145500,0.0,0
2019-11-29,109.31915742245695,109.87235243938596,108.63979771902322,108.81449127197266,89300,0.0,0
2019-12-02,109.20269204816289,109.39680010852099,108.32923169218033,108.70773315429688,273300,0.0,0
2019-12-03,108.22248894518866,109.9694173010873,107.86339453765072,109.3871078491211,246400,0.0,0
2019-12-04,109.41620881910626,110.13439754627977,108.44569071645985,108.48451232910156,284600,0.0,0
2019-12-05,108.59126164414927,109.33856467278487,108.35833939050016,108.64949035644531,243700,0.0,0
2019-12-06,109.46473989081966,109.66854780794456,108.50392902309778,108.77567291259766,322100,0.0,0
2019-12-09,108.99888275402361,109.51325614962641,108.39716628571784,109.3094482421875,255000,0.0,0
2019-12-10,109.1541667801943,109.50355387219028,108.05747663969268,108.6397933959961,219500,0.0,0
2019-12-11,108.66891892083724,109.44532900159165,108.60098294621541,109.25122833251953,141100,0.0,0
2019-12-12,109.19301040805345,111.06611092720047,109.19301040805345,110.81377410888672,407000,0.0,0
2019-12-13,110.61966208874304,111.98808883108087,109.98882380981507,110.60995483398438,380400,0.0,0
2019-12-16,111.08549504246488,111.32812455480763,109.95969795551642,110.94962310791016,194200,0.0,0
2019-12-17,110.76524277979155,111.36696674721449,109.72678857122494,110.00823974609375,248900,0.0,0
2019-12-18,110.00822957168666,110.02764408096695,109.04741868735388,109.7461929321289,204000,0.0,0
2019-12-19,109.82382522597484,110.13439070334685,109.47443813837322,109.9208755493164,172100,0.0,0
2019-12-20,110.36732223389961,111.74545619275683,110.36732223389961,111.57076263427734,473500,0.0,0
2019-12-23,111.54165098114774,111.96868133544922,110.86229123972797,111.96868133544922,144300,0.0,0
2019-12-24,111.9104520001363,112.23072478529039,111.29902819576908,111.3475570678711,63800,0.0,0
2019-12-26,111.35723989596812,111.47370472852961,110.44495795653114,111.43488311767578,110900,0.0,0
2019-12-27,111.82309823874796,111.94926292791403,110.78464415332776,111.62899017333984,87800,0.0,0
2019-12-30,111.55135863993645,112.38600484211308,111.28931459267834,112.34718322753906,193000,0.0,0
2019-12-31,112.30835403859427,112.77419857313292,111.62898693606614,112.2113037109375,310700,0.0,0
2020-01-02,112.09484150114109,113.04595250517622,109.60061025915579,110.32849884033203,362700,0.0,0
2020-01-03,109.48415396799587,111.45430469680821,109.48415396799587,110.67789459228516,221500,0.0,0
2020-01-06,110.30909008853335,111.11461447894311,110.2120323555871,110.68759155273438,282400,0.0,0
2020-01-07,110.21203814589121,110.64877575369835,109.41621356339282,109.58120727539062,234700,0.0,0
2020-01-08,109.74618525235044,110.81375364962159,109.74618525235044,109.8820571899414,331000,0.0,0
2020-01-09,110.41584175301281,111.66781099932456,109.97911156673769,111.27960968017578,329100,0.0,0
2020-01-10,111.27960660292291,112.74508357245493,111.1922561254041,112.37628936767578,196800,0.0,0
2020-01-13,112.08513347588158,113.12358754837186,111.96867604255233,112.77420043945312,248500,0.0,0
2020-01-14,112.82271787775507,112.89065384180394,111.74544230179093,112.70625305175781,160800,0.0,0
2020-01-15,112.89066357751034,113.77383859077561,112.48304775806425,113.2691650390625,241500,0.0,0
2020-01-16,113.75441675091847,114.78316348734946,113.72530239490098,114.7346420288086,187300,0.0,0
2020-01-17,114.82200170578089,115.11316011700151,113.60885399980496,113.86119079589844,190600,0.0,0
2020-01-21,113.22064049346476,113.32739066801311,111.94925679915781,112.22100067138672,189300,0.0,0
2020-01-22,112.27924879933808,112.99743016768267,112.07544087336728,112.25983428955078,141800,0.0,0
2020-01-23,111.92984840654925,115.51105497354864,111.38635326388697,113.90970611572266,301000,0.0,0
2020-01-24,113.93883527402913,114.67643116059124,113.18183228192389,113.6670913696289,213000,0.0,0
2020-01-27,112.13367472598655,113.80296722972847,111.82310919536943,113.0556640625,239100,0.0,0
2020-01-28,113.32824884719957,113.49374660673682,112.5104825415353,112.89989471435547,178600,0.36,0
2020-01-29,112.8414847791102,113.9805092498323,112.47153987491647,112.87068939208984,211200,0.0,0
2020-01-30,111.97502365118135,113.9123468877184,111.30329536349961,113.45478820800781,153200,0.0,0
2020-01-31,112.841476656503,113.30876528537937,112.09185698269472,112.45206451416016,300700,0.0,0
2020-02-03,112.54942276320753,114.42832959768167,112.45207157836096,114.13626861572266,271300,0.0,0
2020-02-04,114.67170146478325,115.35316712783774,113.12379027667569,113.85393524169922,313700,0.0,0
2020-02-05,114.03891029568437,115.15846741991972,113.65923549934475,114.74958801269531,188100,0.0,0
2020-02-06,114.92482475160713,115.80099280037571,114.35044016211017,114.41858673095703,247800,0.0,0
2020-02-07,113.97077274560391,114.56462463864472,113.14327651957933,113.61056518554688,144500,0.0,0
2020-02-10,113.33797970500363,113.99997817605298,112.4228696328321,112.7343978881836,142600,0.0,0
2020-02-11,112.94857116136117,113.7955421144393,112.34498932513006,112.977783203125,197600,0.0,0
2020-02-12,113.05564671623988,113.13353063049361,111.27409859905374,111.6732406616211,448200,0.0,0
2020-02-13,111.54667860207616,113.46452717512368,110.68024053010319,113.12378692626953,200400,0.0,0
2020-02-14,113.51319804080985,114.63275509623553,113.09458131321307,113.58134460449219,216800,0.0,0
2020-02-18,113.3866532160512,113.54241362205484,112.03345172972224,112.20868682861328,271300,0.0,0
2020-02-19,112.31577935331785,113.53268774240782,111.6829855055072,111.9653091430664,289200,0.0,0
2020-02-20,111.57589241650889,112.60782831154052,110.72892153842012,111.88742065429688,378400,0.0,0
2020-02-21,108.56768939066376,111.61483257697567,106.27017331611839,109.01551818847656,720600,0.0,0
2020-02-24,107.57469796267011,108.2659010130404,106.2799056978239,106.31884765625,447900,0.0,0
2020-02-25,106.32858744320629,106.66932030298142,103.88503334467157,104.10894775390625,641400,0.0,0
2020-02-26,101.24676929616213,103.73899508667827,100.0493282758452,101.90876770019531,504500,0.0,0
2020-02-27,100.66266706625332,101.98666403559047,99.25104882747934,99.68914031982422,670500,0.0,0
2020-02-28,97.0898258670907,99.50416804329755,96.69067633516299,98.39434814453125,690800,0.0,0
2020-03-02,98.92978679692298,101.01313335903068,98.14122511235072,100.83789825439453,331800,0.0,0
2020-03-03,101.04232777787442,102.92123443291612,99.4944166051854,100.03959655761719,353300,0.0,0
2020-03-04,102.59998553740809,104.7806834191575,101.67513807830653,104.59571838378906,294500,0.0,0
2020-03-05,102.55129966789544,102.99912848888496,99.92278053207322,101.22731018066406,273800,0.0,0
2020-03-06,98.9200426532739,104.56650014586987,98.64745638199608,104.45941162109375,624000,0.0,0
2020-03-09,100.02013257970412,102.22030503440786,96.84644083780638,98.7642822265625,597100,0.0,0
2020-03-10,100.85736284661544,101.2370376586914,96.75881640356079,101.2370376586914,522300,0.0,0
2020-03-11,98.97845411439151,98.97845411439151,95.32772912556841,96.45702362060547,705800,0.0,0
2020-03-12,90.0317626201547,93.84798593121782,85.18359584026666,91.90093231201172,843100,0.0,0
2020-03-13,95.48349637615047,96.80749322490408,88.70775172939784,93.8382339477539,596000,0.0,0
2020-03-16,85.08623156521479,91.97880210024952,85.08623156521479,85.55352020263672,667400,0.0,0
2020-03-17,87.56872122099284,94.38340792853842,87.1111699239468,93.89664459228516,595700,0.0,0
2020-03-18,89.26266286453804,94.41261984678995,87.94839591640276,94.18870544433594,762000,0.0,0
2020-03-19,93.93558571048254,98.54037009832571,91.11235689997581,96.26231384277344,354700,0.0,0
2020-03-20,96.19417273609356,97.33320464226271,86.77043379824626,90.06095886230469,727300,0.0,0
2020-03-23,89.62286906624666,90.77163091344951,77.72637114710008,81.70809936523438,698800,0.0,0
2020-03-24,84.95966521194825,85.98187113815824,80.50091891868108,85.72875213623047,535600,0.0,0
2020-03-25,86.64387884914079,91.18051696977402,83.93747573190306,87.79264068603516,576200,0.0,0
2020-03-26,88.44490047282791,94.76308676639697,87.83158131693844,93.65326690673828,447000,0.0,0
2020-03-27,92.03721040939823,93.30279059831963,89.66180300592454,91.51150512695312,482000,0.0,0
2020-03-30,92.45583481094852,98.28725784866752,91.87172025796198,97.8199691772461,435400,0.0,0
2020-03-31,97.85890587875458,100.029873804573,94.86044912633724,96.90485382080078,531000,0.0,0
2020-04-01,95.12329979844782,96.06762195366588,92.91339729877427,93.66300964355469,296500,0.0,0
2020-04-02,93.27360364240904,94.56839611495457,91.62834834264862,93.60460662841797,455700,0.0,0
2020-04-03,92.36820046646874,94.84095890388524,90.88844331322893,91.69647216796875,370300,0.0,0
2020-04-06,94.50023629211873,98.50143161570008,94.50023629211873,98.0925521850586,503200,0.0,0
2020-04-07,100.80869388626193,100.80869388626193,96.59332144541742,98.44302368164062,378000,0.0,0
2020-04-08,99.93251846896595,102.50262839436706,97.9757276982335,101.35386657714844,328500,0.0,0
2020-04-09,102.25924590766397,105.17008867374967,101.4706916539806,104.43020629882812,399300,0.0,0
2020-04-13,104.15762048764704,104.58597461626367,99.59178527433527,99.64045715332031,234000,0.0,0
2020-04-14,101.79194828461488,102.58050995381124,100.62371922809913,101.26624298095703,239700,0.0,0
2020-04-15,99.57232401869226,101.43176384847587,97.94653597827919,98.25806427001953,441400,0.0,0
2020-04-16,100.3024482525473,100.3024482525473,97.0411355030788,99.1536865234375,294000,0.0,0
2020-04-17,101.1104711619556,102.2397581321514,99.68912324688212,100.21482849121094,256200,0.0,0
2020-04-20,99.16343033156659,105.08247445464622,98.45275257196192,104.10894775390625,856400,0.0,0
2020-04-21,103.04779732425303,104.15761714237031,101.36360033159218,103.31065368652344,475500,0.0,0
2020-04-22,104.15762163529355,104.20630094223431,101.36360470399325,103.48589324951172,436400,0.0,0
2020-04-23,103.7974176166893,104.47888332383056,102.17162241121947,102.2397689819336,347600,0.0,0
2020-04-24,102.61945973047344,102.61945973047344,100.36087050828515,101.36360931396484,377000,0.0,0
2020-04-27,106.43567805337497,111.0793972385409,104.05053313352401,109.59963989257812,457700,0.0,0
2020-04-28,109.97074879187312,111.98265213208748,108.39834226367564,108.58390808105469,274600,0.36,0
2020-04-29,109.93169259562882,110.97670752171392,107.25567438839855,107.50960540771484,236600,0.0,0
2020-04-30,106.44505568273001,107.49983921605718,103.8569323181064,104.57965850830078,730600,0.0,0
2020-05-01,107.97840397064081,107.97840397064081,102.2650038945282,103.66161346435547,506200,0.0,0
2020-05-04,103.06586071939918,104.82383348518073,102.62637125357742,104.31597137451172,324300,0.0,0
2020-05-05,104.2866677949904,105.11681866135379,102.93889371023266,103.09515380859375,332500,0.0,0
2020-05-06,104.27688073733937,104.55034890070753,102.3138202890683,102.41148376464844,234000,0.0,0
2020-05-07,103.05606830740827,104.39408101708145,102.68494412099139,103.00724029541016,285200,0.0,0
2020-05-08,104.48199687136116,105.46840778547603,104.07179830030968,105.01914978027344,257000,0.0,0
2020-05-11,104.16947010601103,104.99962093668803,103.60301143990331,103.82763671875,344000,0.0,0
2020-05-12,103.94483799561229,103.94483799561229,101.42507973583221,101.52274322509766,233300,0.0,0
2020-05-13,100.97581671751611,100.97581671751611,99.2764482445683,100.0284652709961,267100,0.0,0
2020-05-14,98.65139620221379,100.22380294153243,96.7957601330105,100.06753540039062,246200,0.0,0
2020-05-15,99.10064554906316,99.32527080577398,97.71380477318806,99.12994384765625,476400,0.0,0
2020-05-18,101.63994484063407,102.69472841763107,100.5460943773135,101.71807861328125,304500,0.0,0
2020-05-19,101.36647318447338,103.28070570095144,100.75118655636304,101.30787658691406,214700,0.0,0
2020-05-20,102.01106718581501,103.05608215897583,101.64971153372686,101.97200775146484,146200,0.0,0
2020-05-21,102.00130724975887,103.24164921421118,102.00130724975887,102.63612365722656,233900,0.0,0
2020-05-22,102.51892749464272,102.79238823789804,101.28834669874739,102.64588928222656,151200,0.0,0
2020-05-26,104.83357903375924,107.61703674097862,104.28665756626869,106.99198150634766,332200,0.0,0
2020-05-27,108.47648354898702,110.01959188701431,107.77329456197478,109.92192840576172,290400,0.0,0
2020-05-28,110.68371744568323,110.68371744568323,108.34952515004069,108.99411010742188,233600,0.0,0
2020-05-29,108.50579500717427,108.92575473361201,107.1482523347644,108.78902435302734,215300,0.0,0
2020-06-01,108.68159846904489,109.26758691226726,108.01747624639357,108.81832885742188,277000,0.0,0
2020-06-02,109.1406126280606,109.8438016600113,108.34952869273928,109.45314025878906,224900,0.0,0
2020-06-03,110.06842143501908,111.43573254533685,110.06842143501908,110.63488006591797,196600,0.0,0
2020-06-04,110.84974385671813,110.84974385671813,108.42764925865742,109.52149963378906,182500,0.0,0
2020-06-05,111.14274421384326,111.61153191980974,110.27352653491944,110.75208282470703,235500,0.0,0
2020-06-08,110.18563102258231,111.33807809388468,109.66800781662602,110.92788696289062,244700,0.0,0
2020-06-09,110.14655480675542,110.80090833428629,109.29687431469911,109.84379577636719,292100,0.0,0
2020-06-10,110.36143224866632,110.36143224866632,108.23233529307579,109.03318786621094,366600,0.0,0
2020-06-11,107.43147083895383,108.02722777334226,101.77666797973572,101.81573486328125,376900,0.0,0
2020-06-12,104.19876437828341,105.0191465929952,100.67305817905387,102.89981842041016,247300,0.0,0
2020-06-15,101.02465296668205,104.0522657146876,100.66328987515136,102.94865417480469,235900,0.0,0
2020-06-16,105.77117061816826,106.54271736147562,104.36479259758991,104.88241577148438,252600,0.0,0
2020-06-17,105.66373038289828,106.11298833780425,103.88622827816347,104.41361999511719,208800,0.0,0
2020-06-18,103.79832463094493,105.44886494008112,103.49556562086501,104.49174499511719,217800,0.0,0
2020-06-19,104.70662395951102,105.4684096098249,103.62254208752692,105.08751678466797,303700,0.0,0
2020-06-22,104.44293168733121,105.15588186652333,103.03655359509405,105.03868865966797,241900,0.0,0
2020-06-23,105.92743869416987,105.92743869416987,104.42339707564248,104.93125915527344,228300,0.0,0
2020-06-24,104.09132565169641,105.00937129259549,103.37836810011129,103.46627044677734,433900,0.0,0
2020-06-25,102.94865879368975,105.11681508641132,101.35671485399864,105.08751678466797,263600,0.0,0
2020-06-26,104.61872355625087,106.15206336062698,103.6909018260734,105.2047119140625,924200,0.0,0
2020-06-29,105.71256393218121,107.61703536279704,105.37073801937716,106.69898223876953,189300,0.0,0
2020-06-30,106.58178426300228,109.65823245789892,106.58178426300228,109.36524200439453,421800,0.0,0
2020-07-01,109.29687137109194,110.03911977729504,108.35928110313225,109.85356140136719,247900,0.0,0
2020-07-02,110.79115034912827,112.32449016307265,110.79115034912827,112.2854232788086,271400,0.0,0
2020-07-06,113.2816070956397,113.9359681181175,111.51387335951614,112.56865692138672,330900,0.0,0
2020-07-07,111.96311873498365,113.29136289607175,111.51386077626941,112.46121215820312,346500,0.0,0
2020-07-08,112.10962174033335,113.04720457309678,109.96098789541027,110.29305267333984,205900,0.0,0
2020-07-09,110.51767990289427,111.47479240393099,108.80854298551164,111.10366821289062,307200,0.0,0
2020-07-10,111.50410637361999,112.48075617796367,109.77543949848018,112.2658920288086,244500,0.0,0
2020-07-13,112.27565260152629,113.55506136952258,110.62511216556443,110.78137969970703,289000,0.0,0
2020-07-14,111.10367158446047,113.77968966710624,111.03530640374038,113.59412384033203,193600,0.0,0
2020-07-15,114.69774519796539,115.52789596752146,113.81875896204001,115.14700317382812,326900,0.0,0
2020-07-16,115.28373364382072,115.72322303656318,114.07269007946144,114.50241088867188,252900,0.0,0
2020-07-17,115.24467308204595,116.91474329781416,114.60008065600572,116.61198425292969,249000,0.0,0
2020-07-20,116.6119791854788,116.95380510053386,115.5083602224132,116.50454711914062,183200,0.0,0
2020-07-21,116.78778237238745,117.07101170247437,114.92237771771917,115.42047119140625,394300,0.0,0
2020-07-22,115.48883164482278,116.20178923289093,114.6684494406036,115.73299407958984,414600,0.0,0
2020-07-23,115.62556486093477,116.4459545366126,115.33256695149703,115.67440032958984,286700,0.0,0
2020-07-24,116.22132042513798,116.99287462295021,115.61579489677683,116.07482147216797,244700,0.0,0
2020-07-27,116.05529602034315,117.63746390706932,115.73299980221503,117.05147552490234,281800,0.0,0
2020-07-28,117.36492290562812,117.36492290562812,115.3763522096461,115.6408462524414,208600,0.36,0
2020-07-29,116.29719337305784,116.97311441863572,114.93556074044137,116.3853530883789,251200,0.0,0
2020-07-30,115.34697718169878,116.48330767803863,114.31840242117374,115.50371551513672,359800,0.0,0
2020-07-31,112.65310645509048,115.49392541695798,108.95024902131446,112.8490219116211,668100,0.0,0
2020-08-03,114.46535905875898,117.2376070686754,112.50617445364989,116.2384262084961,292900,0.0,0
2020-08-04,116.52250141806935,117.72740323883097,115.80740322235972,116.1992416381836,233100,0.0,0
2020-08-05,117.1200419615246,118.20738990997184,115.80739199057486,115.94453430175781,164700,0.0,0
2020-08-06,116.39515803270605,117.65883301007337,114.29883108616698,115.25883483886719,246500,0.0,0
2020-08-07,114.6808568400158,116.93392185579968,114.39677420942078,116.81636810302734,202300,0.0,0
2020-08-10,117.13963914313352,117.13963914313352,114.51433170171609,114.61228942871094,204700,0.0,0
2020-08-11,115.61147423724235,116.91433372546534,114.15188387509623,114.35759735107422,214100,0.0,0
2020-08-12,114.53391738034085,116.15024599308492,114.36738850126358,115.68003845214844,171800,0.0,0
2020-08-13,114.84738812586583,117.03188203342569,114.84738812586583,116.10126495361328,213800,0.0,0
2020-08-14,115.47433228206995,117.19841674280603,115.29800537729358,116.07188415527344,134600,0.0,0
2020-08-17,116.70862087342064,117.4727016379082,115.60168431380352,115.83678436279297,160500,0.0,0
2020-08-18,115.5037211316226,116.21881926004411,114.38697913581224,115.47432708740234,171500,0.0,0
2020-08-19,116.27760613504118,116.93393867363024,114.92577141536262,115.28822326660156,145600,0.0,0
2020-08-20,114.67107166488086,115.71923512161742,114.2204601060096,115.15107727050781,159400,0.0,0
2020-08-21,114.72984257298847,115.93473680861572,114.02453498447717,115.39596557617188,199200,0.0,0
2020-08-24,115.7878048012793,117.31597384408278,115.7878048012793,116.67923736572266,224000,0.0,0
2020-08-25,117.10044388095521,117.10044388095521,115.52329995693933,115.7192153930664,114400,0.0,0
2020-08-26,115.58208225090188,116.57147247123362,115.1608573035286,116.17963409423828,120000,0.0,0
2020-08-27,116.20902521341532,118.15841916000646,116.08168091222771,117.60005187988281,209800,0.0,0
2020-08-28,117.25717473511791,117.25717473511791,115.59187110695329,115.7192153930664,295200,0.0,0
2020-08-31,116.16006292679694,116.72822828480528,115.37638605549604,115.97393798828125,182500,0.0,0
2020-09-01,115.53311017788089,117.1984139819986,115.53311017788089,117.06127166748047,133900,0.0,0
2020-09-02,117.3061674380617,119.94127288107128,116.5420867081604,119.76494598388672,153800,0.0,0
2020-09-03,119.78453125746536,119.78453125746536,116.08167399174768,116.73799896240234,227200,0.0,0
2020-09-04,117.59024921718137,117.84494528318568,114.11269389900276,116.29718780517578,224200,0.0,0
2020-09-08,115.71923835232595,115.71923835232595,113.67189398592407,113.69148254394531,164600,0.0,0
2020-09-09,114.25963298666176,116.20901936139047,114.25963298666176,115.48412322998047,154000,0.0,0
2020-09-10,115.75842003363329,116.48332371504328,114.32821617573461,114.79842376708984,253500,0.0,0
2020-09-11,115.47432675363382,116.28739007971517,114.73963259785572,115.94453430175781,124600,0.0,0
2020-09-14,116.93392394426255,117.60983748211345,116.05228946696202,116.64984130859375,129000,0.0,0
2020-09-15,117.00250920697312,117.35516304041421,115.70944764225457,115.9151611328125,125600,0.0,0
2020-09-16,117.13964422079202,117.13964422079202,115.17066168595547,115.3665771484375,232000,0.0,0
2020-09-17,114.12249418699479,114.84739034069801,112.7314750214926,113.59351348876953,354500,0.0,0
2020-09-18,114.200864193804,114.36739307954765,111.89882394347299,112.69229125976562,555700,0.0,0
2020-09-21,111.2816830756186,111.71270607645273,109.53800998852937,111.1347427368164,251500,0.0,0
2020-09-22,111.64411899276003,112.32983051111636,111.24248262222632,111.99677276611328,292400,0.0,0
2020-09-23,111.86942852877947,112.1926957550498,109.43024599373942,109.85147094726562,172300,0.0,0
2020-09-24,109.6163784662013,110.86045738290244,108.89148226608478,109.96903228759766,274300,0.0,0
2020-09-25,109.1853403681565,110.28248626895765,109.1853403681565,109.8122787475586,254100,0.0,0
2020-09-28,110.86045341689203,111.88902827145039,109.7535168621459,110.06698608398438,230000,0.0,0
2020-09-29,109.7731014380252,111.03677629471332,109.46943024235826,110.3216781616211,230000,0.0,0
2020-09-30,110.95840269647033,111.73228141381405,110.20412000795291,110.88983154296875,200500,0.0,0
2020-10-01,111.13473299051925,112.62371733171287,110.8310617976699,111.37963104248047,166000,0.0,0
2020-10-02,110.01800110975854,111.84984127288719,110.01800110975854,110.54698181152344,166800,0.0,0
2020-10-05,111.04657835997284,112.58453789770869,110.89963802733398,112.21229553222656,151300,0.0,0
2020-10-06,112.66289737599578,113.53473380794271,111.59513802615929,112.22207641601562,224000,0.0,0
2020-10-07,112.74127030715175,113.79923174812426,112.16331445758277,112.6335220336914,173200,0.0,0
2020-10-08,113.43678209368433,114.40657629909072,113.16248999411188,114.14208221435547,138000,0.0,0
2020-10-09,115.70943358641107,115.97392019251514,113.81882033767448,114.42616271972656,148700,0.0,0
2020-10-12,114.66127873876552,116.40495179187405,114.31841546367677,115.63107299804688,138100,0.0,0
2020-10-13,115.32738687006706,116.48330590363081,114.85717935061105,115.16085052490234,159000,0.0,0
2020-10-14,115.10208606669731,115.62126874848346,113.67188231964819,114.063720703125,98900,0.0,0
2020-10-15,112.37882460855063,114.21065734091758,111.88902848140297,113.96575927734375,116900,0.0,0
2020-10-16,114.3282092235698,114.83760137270379,113.81882454813149,113.97555541992188,97700,0.0,0
2020-10-19,114.259631456586,114.259631456586,112.24167395420216,112.80004119873047,113700,0.0,0
2020-10-20,113.68168739685754,115.160866362674,112.86862400852918,114.57311248779297,192600,0.0,0
2020-10-21,114.87679436809088,116.336392385873,114.87679436809088,115.33720397949219,133700,0.0,0
2020-10-22,115.48413425092998,116.06209758725453,114.36739964034605,115.89556121826172,164100,0.0,0
2020-10-23,116.3265765433279,116.5420880282942,115.08249770788005,115.93473815917969,105600,0.0,0
2020-10-26,114.95514099066779,115.09228329816592,113.56412188678942,115.06289672851562,114100,0.0,0
2020-10-27,115.13168465518329,115.1513409291845,113.5988251366579,113.63813018798828,125000,0.36,0
2020-10-28,112.12491691340904,112.61621879893036,110.29727329953599,110.38570404052734,170500,0.0,0
2020-10-29,110.34639972771603,111.13247819839742,108.42048985736888,110.97526550292969,279100,0.0,0
2020-10-30,114.22769831411038,114.72882837997606,111.56484276268966,112.10527038574219,377900,0.0,0
2020-11-02,113.16647407515487,116.23220052778142,112.67517219152911,116.13394165039062,215600,0.0,0
2020-11-03,116.43854495778434,119.34705117274105,116.27150411864949,117.4801025390625,242400,0.0,0
2020-11-04,117.91245159452099,117.93210037125117,116.04550294494005,116.9789810180664,150600,0.0,0
2020-11-05,118.51184361335382,120.95852494935667,118.33497463143361,120.77183532714844,185500,0.0,0
2020-11-06,121.4400009644198,122.44226104615582,120.33948949794525,121.4498291015625,220300,0.0,0
2020-11-09,125.39988901047718,126.61831551998526,119.98574043297845,121.02729797363281,336500,0.0,0
2020-11-10,121.2434789332691,126.55936894283575,120.8111308742764,125.39006805419922,326100,0.0,0
2020-11-11,125.52762747444501,125.52762747444501,122.20642954026341,123.09076690673828,194700,0.0,0
2020-11-12,122.07869264146274,123.03181951622255,120.45739489034248,122.10816955566406,126300,0.0,0
2020-11-13,122.6780825569878,123.80807842288024,121.94112970923257,122.89425659179688,126300,0.0,0
2020-11-16,124.08320993004246,124.7906858841287,123.38556211328304,124.65312194824219,207400,0.0,0
2020-11-17,124.0635465973796,125.87154132312293,123.51328342171612,125.1444091796875,191200,0.0,0
2020-11-18,125.21318837062623,125.63570825670062,123.77858788449886,124.171630859375,173100,0.0,0
2020-11-19,124.49589157405138,125.39989271751159,123.8080719507713,125.01667785644531,213900,0.0,0
2020-11-20,125.29180936423845,126.12702107308692,124.97737645631884,125.58658599853516,237300,0.0,0
2020-11-23,125.83224354060442,126.87380119708014,124.20112508794759,124.65312194824219,182300,0.0,0
2020-11-24,125.9305079838429,126.23511276623964,124.67276880888109,125.6553726196289,237200,0.0,0
2020-11-25,126.24493002710743,126.24493002710743,123.58207467086739,124.09303283691406,136100,0.0,0
2020-11-27,124.34851299719917,125.08546584191586,123.88668801504251,125.02650451660156,67800,0.0,0
2020-11-30,124.58433780694777,124.7219017404345,123.50347511669247,124.12251281738281,204600,0.0,0
2020-12-01,124.93807752623322,126.34320129223039,124.22077343729526,125.59642028808594,165800,0.0,0
2020-12-02,125.14441549328326,125.8224144867263,123.53294592636011,124.06355285644531,133800,0.0,0
2020-12-03,123.87686139025095,124.8987702470002,122.97286768889774,123.68034362792969,138700,0.0,0
2020-12-04,123.29712929343287,125.5767698312147,123.29712929343287,125.45885467529297,144600,0.0,0
2020-12-07,125.76346823496661,126.74607960955187,125.41955837703173,126.39234161376953,115000,0.0,0
2020-12-08,126.05823637979903,128.62283292753835,125.71433404178187,126.94258880615234,162100,0.0,0
2020-12-09,126.88360640693922,127.91532818202971,126.42178152005414,127.27664184570312,144800,0.0,0
2020-12-10,127.21771359509621,128.80952693332657,126.77554488929266,128.2003173828125,247100,0.0,0
2020-12-11,127.33562418585855,128.8193655352391,127.33562418585855,128.1806640625,165800,0.0,0
2020-12-14,128.77022847189798,129.6938784247806,125.96980169929373,126.17615509033203,205800,0.0,0
2020-12-15,126.32354922318099,128.37718768210726,126.07789825938565,127.99397277832031,158200,0.0,0
2020-12-16,128.71126418944715,129.44821696518488,127.93499886939824,128.81935119628906,265400,0.0,0
2020-12-17,129.00602974506967,131.36428755835837,128.72108127671848,130.8238525390625,297700,0.0,0
2020-12-18,131.66891501480706,132.32725779067974,131.3151770314514,131.76718139648438,656300,0.0,0
2020-12-21,130.47014690773096,132.65152880307136,129.2124150933621,132.54344177246094,211700,0.0,0
2020-12-22,132.30758658891065,133.85028164580007,131.67872079982004,132.1602020263672,257300,0.0,0
2020-12-23,132.17986136688614,133.38845978782194,132.11107190720728,132.18968200683594,191600,0.0,0
2020-12-24,132.6515053296129,133.99766765990285,132.30758802216178,133.33932495117188,84200,0.0,0
2020-12-28,133.82080914672093,134.75427972474947,132.71046209446376,133.31967163085938,100400,0.0,0
2020-12-29,133.89942195313773,134.3710675717065,132.4942907443317,132.95611572265625,94400,0.0,0
2020-12-30,133.5456731453206,134.970445518906,133.1035044767379,134.01731872558594,99000,0.0,0
2020-12-31,134.39072881394412,134.93116391423393,133.25090478303187,134.50863647460938,169800,0.0,0
2021-01-04,133.55549689446428,135.56983753529016,131.35445914640604,131.6688995361328,315700,0.0,0
2021-01-05,131.7966270805179,132.9364358738129,131.21687955535592,131.3740997314453,260500,0.0,0
2021-01-06,131.8850900144385,135.56985445383754,131.8850900144385,135.32420349121094,289300,0.0,0
2021-01-07,135.12769085316216,137.56454429685544,134.13525133070803,137.26976013183594,192400,0.0,0
2021-01-08,137.1420282494788,138.1737503101535,135.36350266441667,136.65072631835938,140600,0.0,0
2021-01-11,137.07323515478288,137.43679377631955,135.97272365606997,136.37557983398438,115300,0.0,0
2021-01-12,136.39521085300666,136.80790258860725,134.70513136816118,135.74668884277344,199200,0.0,0
2021-01-13,135.55019004295792,137.15183902102262,133.77167957922282,136.1692352294922,245000,0.0,0
2021-01-14,136.09062303896653,138.26218398200254,135.12767553617726,137.0240936279297,181200,0.0,0
2021-01-15,136.62122487500773,138.871395958788,135.96288213244915,136.41488647460938,149300,0.0,0
2021-01-19,137.1518559155674,138.17375738756687,134.8623870000804,134.87220764160156,222300,0.0,0
2021-01-20,135.33402723766096,138.30149513242225,135.09821190386884,138.1737518310547,254100,0.0,0
2021-01-21,137.82984054649197,138.67488042233313,135.60914634144612,135.70741271972656,208300,0.0,0
2021-01-22,135.46174971472618,135.97270784830246,134.7247969232258,135.7860107421875,227800,0.0,0
2021-01-25,135.75653865414833,137.4859158687198,135.45193388843882,137.1420135498047,187100,0.0,0
2021-01-26,137.35872423804088,137.92026395670877,135.04364311232274,136.787353515625,125900,0.36,0
2021-01-27,135.4869566701185,135.4869566701185,131.17201784193713,131.27053833007812,186900,0.0,0
2021-01-28,132.08822702335507,133.78267741579282,131.62520772820537,133.2408447265625,165800,0.0,0
2021-01-29,132.43300818956902,133.34920066986143,129.86179469354684,130.9947052001953,377800,0.0,0
2021-02-01,132.1374824489648,132.39361469628616,129.85193920043318,132.0980682373047,184700,0.0,0
2021-02-02,133.04380813205708,136.06819484875658,132.73841564945826,134.90573120117188,193000,0.0,0
2021-02-03,134.1373201614385,135.26038463705785,133.37875445313344,134.5313720703125,134700,0.0,0
2021-02-04,134.09791971577087,136.34404889756368,132.99456223197606,135.9499969482422,251100,0.0,0
2021-02-05,137.3882792576368,138.63940213777886,136.65926680637827,138.57044982910156,177500,0.0,0
2021-02-08,139.15169813948737,139.89055671367933,138.44239270569378,139.870849609375,171200,0.0,0
2021-02-09,139.85115719252582,140.7673346068502,139.12214465622455,140.0580291748047,183000,0.0,0
2021-02-10,140.87572304823846,141.95938846914922,140.39299662762937,141.12200927734375,151100,0.0,0
2021-02-11,141.36827114303344,142.17609705069498,139.94966030273136,140.8461456298828,195800,0.0,0
2021-02-12,140.26491538447095,142.6095496855045,140.26491538447095,142.4814910888672,105300,0.0,0
2021-02-16,142.46178769443236,142.5701542218649,140.77718350109302,141.466796875,175300,0.0,0
2021-02-17,141.61456741212504,142.0381724679243,140.33387614388766,141.0825958251953,200700,0.0,0
2021-02-18,140.50134462766707,141.0530233029186,138.89556884765625,138.89556884765625,208700,0.0,0
2021-02-19,136.5115110957101,136.5115110957101,129.65489722887773,130.27554321289062,492900,0.0,0
2021-02-22,129.3002605990664,129.418473169908,125.60596743909309,127.18220520019531,347100,0.0,0
2021-02-23,125.92120868125099,126.80784050901049,124.89665718206871,126.37437438964844,490700,0.0,0
2021-02-24,126.35466424263264,127.12307596950565,125.90150606120314,126.84723663330078,213000,0.0,0
2021-02-25,126.85709435096011,128.9653035260505,126.85709435096011,128.36436462402344,378600,0.0,0
2021-02-26,129.11308593746134,129.61551944825587,127.63536861322892,128.13780212402344,386500,0.0,0
2021-03-01,128.8372462311851,130.03912418760973,127.95062185184402,128.65992736816406,283000,0.0,0
2021-03-02,128.50229468134728,128.71902774761466,127.54670298883677,128.41363525390625,367700,0.0,0
2021-03-03,128.4333194446299,130.2164290813827,127.57624830106981,129.1032257080078,220400,0.0,0
2021-03-04,128.94561704386743,129.9406079943004,128.19691232165118,128.462890625,493600,0.0,0
2021-03-05,129.19189396024103,132.14732848582116,128.47274243467606,132.0980682373047,204700,0.0,0
2021-03-08,132.8270696655172,136.4228420231749,132.10791820040888,135.66429138183594,230600,0.0,0
2021-03-09,136.6198760336276,138.58031963141408,135.6347312164294,135.64459228515625,251500,0.0,0
2021-03-10,136.1568612170784,138.03847624728024,135.89086792811494,137.30947875976562,150700,0.0,0
2021-03-11,137.12229885390673,138.33402267589344,136.67898672704484,137.30947875976562,169100,0.0,0
2021-03-12,137.92026732851315,139.14185225069895,137.19125478964347,138.6788330078125,219000,0.0,0
2021-03-15,139.67382429907155,140.90525526166888,138.91525861711904,140.0186309814453,356200,0.0,0
2021-03-16,139.60488898678787,139.98909489263275,137.26023933812942,138.41285705566406,280700,0.0,0
2021-03-17,137.83161556032547,139.63443238721783,137.30949000758866,139.18125915527344,180900,0.0,0
2021-03-18,139.2403793403596,140.3535979098799,138.8463273853336,139.40785217285156,174100,0.0,0
2021-03-19,139.94967258297712,140.21566589690298,136.9745309780663,137.2405242919922,615000,0.0,0
2021-03-22,136.90557399504527,139.75264186443957,136.2061145732385,139.4866485595703,247700,0.0,0
2021-03-23,138.44239285225893,140.4422355259531,138.07789409888218,138.6788330078125,330100,0.0,0
2021-03-24,139.0630342115638,142.18594121342136,139.0630342115638,139.73292541503906,300800,0.0,0
2021-03-25,139.2994796844614,141.10229661438396,138.3635950571336,140.3535919189453,265600,0.0,0
2021-03-26,140.87571505155873,142.66868591308594,140.07775011969224,142.66868591308594,286800,0.0,0
2021-03-29,142.09727454478272,143.73260329481485,141.25989555104908,142.61940002441406,272200,0.0,0
2021-03-30,142.18594449530676,142.26475787967283,140.48164827572438,140.9545135498047,247900,0.0,0
2021-03-31,140.9052731222854,141.3387392812028,139.1320093049498,139.5654754638672,408600,0.0,0
2021-04-01,139.88071088690805,141.84113935281005,139.2797719777147,141.73277282714844,228200,0.0,0
2021-04-05,142.79672058814222,142.79672058814222,141.21063702730433,142.54058837890625,196100,0.0,0
2021-04-06,141.90025265461327,143.82129707112918,141.1909622167803,143.8015899658203,206100,0.0,0
2021-04-07,143.12182139336116,143.33855443080856,141.2500524686228,141.45692443847656,188000,0.0,0
2021-04-08,141.66382085589393,141.8214476267167,140.07773717576612,141.54559326171875,158700,0.0,0
2021-04-09,142.2746180016552,143.14155028339692,141.1515534694523,143.04302978515625,151400,0.0,0
2021-04-12,142.53073955935048,144.2054977110949,142.53073955935048,144.03802490234375,100800,0.0,0
2021-04-13,144.42224332272875,144.82614129325142,143.27947167082226,144.15625,160800,0.0,0
2021-04-14,142.35344446160678,143.97892760697135,142.35344446160678,143.64398193359375,185100,0.0,0
2021-04-15,144.73746633383467,145.7029039896321,143.86068809872847,145.0133056640625,184800,0.0,0
2021-04-16,146.9244847757609,147.36779689887825,145.37781536273084,145.88023376464844,322600,0.0,0
2021-04-19,146.02801304543436,147.56483656566098,145.5551477389301,147.4860382080078,203900,0.0,0
2021-04-20,144.8162773606007,148.51057015041195,144.49117779124342,148.1854705810547,190300,0.0,0
2021-04-21,147.91948944988792,150.0966661271073,147.91948944988792,149.6829071044922,191200,0.0,0
2021-04-22,149.76172773727794,149.76172773727794,147.71262459847554,147.8406982421875,278400,0.0,0
2021-04-23,148.05742359617517,149.4858957576405,147.60426535039988,149.2001953125,188100,0.0,0
2021-04-26,149.49572681610883,149.91933187437257,148.6583477041273,148.6780548095703,193600,0.0,0
2021-04-27,148.2435040923501,149.7940778146188,147.6311622737562,149.7644500732422,214900,0.38,0
2021-04-28,149.5570483995613,151.1767787173029,149.1817586330678,149.25088500976562,192000,0.0,0
2021-04-29,149.56691732809168,150.2681272564685,148.53977212503332,149.0533447265625,226400,0.0,0
2021-04-30,148.14472305514937,150.06073055120567,146.07069090435306,148.9447021484375,365700,0.0,0
2021-05-03,150.27803305728912,151.30516332589693,149.8632295793862,150.57432556152344,212900,0.0,0
2021-05-04,150.99900091608774,154.20880374777323,150.99900091608774,153.1026611328125,206800,0.0,0
2021-05-05,153.37918309900547,153.37918309900547,151.49280321714025,152.2730255126953,186400,0.0,0
2021-05-06,152.2236524342856,154.69273125754953,151.73970755970387,154.58409118652344,240600,0.0,0
2021-05-07,153.62608736521156,155.97664015682327,153.62608736521156,155.61122131347656,187100,0.0,0
2021-05-10,155.7889872189968,157.0037696584795,153.4680473300919,153.5569305419922,226300,0.0,0
2021-05-11,152.63845944174355,153.73473106774097,151.818723444821,152.08538818359375,299700,0.0,0
2021-05-12,151.71008057330945,152.63845662667975,149.7348175048828,149.7348175048828,164100,0.0,0
2021-05-13,149.52740587126561,153.3692918753868,149.468150391366,152.70758056640625,308900,0.0,0
2021-05-14,153.05325102272096,153.36928525857115,151.28538224166203,151.64093017578125,174000,0.0,0
2021-05-17,151.2162628173828,152.18413748856506,150.3471422562863,151.2162628173828,136800,0.0,0
2021-05-18,151.51255259594072,152.0952515662957,148.99408924755159,149.0533447265625,172500,0.0,0
2021-05-19,148.14473156968498,149.17186174440778,146.76205343639248,147.69041442871094,161400,0.0,0
2021-05-20,147.4237666747027,148.74718934374454,147.1966005662382,147.88795471191406,123200,0.0,0
2021-05-21,148.07558953970224,148.71755908265723,147.03858847888344,147.77931213378906,134900,0.0,0
2021-05-24,148.6089048156692,148.86568356628746,147.11758675812877,147.4138641357422,143000,0.0,0
2021-05-25,147.78918135028337,148.26324026443717,145.64602274143465,145.90280151367188,199200,0.0,0
2021-05-26,146.66328782424796,147.54227931682314,145.3497360306133,146.0312042236328,113600,0.0,0
2021-05-27,146.7818061047939,147.30524965622985,144.6682750470915,144.95469665527344,172600,0.0,0
2021-05-28,145.4682344837331,145.67564372596618,144.60899991603998,145.4879913330078,146900,0.0,0
2021-06-01,146.1497096157658,146.96944559421888,144.79665924184485,145.06332397460938,173000,0.0,0
2021-06-02,145.0336976397972,146.06082781030656,143.3250842255916,143.85841369628906,282800,0.0,0
2021-06-03,143.6806511359551,144.31273480197004,142.9498133449754,143.6016387939453,224500,0.0,0
2021-06-04,144.23368716187815,144.45096728171458,142.98927698740906,143.75962829589844,151900,0.0,0
2021-06-07,143.73001336369032,144.28308460161688,140.27330305658847,140.7572479248047,184800,0.0,0
2021-06-08,140.76711495484008,141.14241974316818,139.37455093820637,141.01402282714844,182900,0.0,0
2021-06-09,140.8066216767484,141.43870519573596,139.88811660084122,140.41156005859375,174100,0.0,0
2021-06-10,140.6288530421684,143.2559565304321,140.47082838045452,143.1967010498047,216100,0.0,0
2021-06-11,143.46336415231212,144.44112488444475,142.45599074715287,144.0263214111328,152900,0.0,0
2021-06-14,144.19420548863374,144.19420548863374,141.30045229704612,141.7152557373047,223600,0.0,0
2021-06-15,141.76463866549975,143.11770425699066,141.59674309547358,142.5448760986328,214200,0.0,0
2021-06-16,142.66335484622266,143.394207518357,140.67822112780217,140.85598754882812,168400,0.0,0
2021-06-17,140.99428993754367,141.82391198272722,138.2388042451568,139.75975036621094,157900,0.0,0
2021-06-18,139.0091266560033,140.144896796039,138.17951985440885,138.36717224121094,280400,0.0,0
2021-06-21,139.2362877394926,140.44119940182975,138.43630861795393,139.82887268066406,229800,0.0,0
2021-06-22,140.1350288794223,140.89550933204583,139.41406212489002,139.8782501220703,207400,0.0,0
2021-06-23,139.64122148720426,140.40170198526616,138.3671834437536,138.43630981445312,227600,0.0,0
2021-06-24,139.18690590708624,139.18690590708624,138.06100655260198,138.44618225097656,142300,0.0,0
2021-06-25,138.44619489681824,139.7400049931862,138.3770685190325,139.1770477294922,635000,0.0,0
2021-06-28,139.3350691412947,139.67086027138348,138.00176044174012,138.9696502685547,218600,0.0,0
2021-06-29,139.06839590758224,140.214052120447,138.32767224634304,138.54495239257812,151900,0.0,0
2021-06-30,138.5844497081874,140.16465095662545,138.5548069007861,139.09800720214844,186500,0.0,0
2021-07-01,139.36468660498227,139.9473855942287,139.157277351659,139.3745574951172,225500,0.0,0
2021-07-02,139.7300976918341,140.18441480385425,138.32766279742637,138.67333984375,121900,0.0,0
2021-07-06,138.66345678329503,139.1276447946073,136.9252307658679,138.3177947998047,273400,0.0,0
2021-07-07,138.09063266109808,139.71034759041592,138.09063266109808,139.27578735351562,219900,0.0,0
2021-07-08,138.20916618642727,138.8610066482589,137.29066097747142,137.54745483398438,154200,0.0,0
2021-07-09,138.1202858600507,139.53259182026991,138.0313875624352,139.43382263183594,229800,0.0,0
2021-07-12,139.07827391905866,139.26591124366345,138.31779345070015,138.68321228027344,174300,0.0,0
2021-07-13,138.47581320931457,139.46344466626118,136.64868898593926,136.78695678710938,223600,0.0,0
2021-07-14,136.9548732181003,137.42893217013298,136.30303274026642,136.72772216796875,179900,0.0,0
2021-07-15,136.0462427984373,137.29065309681624,135.62156847559964,136.84622192382812,155500,0.0,0
2021-07-16,137.2906542419796,138.61409195199943,136.68819840288486,137.32028198242188,177700,0.0,0
2021-07-19,136.3326474080509,137.2116388517176,134.6931905499053,135.4339141845703,293000,0.0,0
2021-07-20,135.60182250929202,137.92274774120875,135.30553001349816,135.32528686523438,294000,0.0,0
2021-07-21,135.6018200839391,136.3030300723784,134.24875456036244,134.3771514892578,158000,0.0,0
2021-07-22,134.64380541769393,135.04873795316038,132.9944626062266,133.00433349609375,203600,0.0,0
2021-07-23,133.3105062072401,134.5944302729262,132.62903800706493,134.554931640625,175200,0.0,0
2021-07-26,135.0684750685952,135.4339089619127,134.2191113974637,135.0289764404297,191000,0.0,0
2021-07-27,134.42652698440853,136.54005783746265,133.71543108337528,135.0684814453125,150500,0.0,0
2021-07-28,134.83146582433426,136.11538987618817,134.54504423050423,135.94747924804688,165100,0.0,0
2021-07-29,137.00424945869034,138.27828752398844,137.00424945869034,137.33016967773438,316000,0.0,0
2021-07-30,134.31789578313203,137.78447722701847,126.59460954197216,127.3254623413086,842400,0.0,0
2021-08-02,126.8514030225951,128.96493400892658,126.1106793348145,128.30322265625,453600,0.0,0
2021-08-03,128.32302798069497,128.51123089872374,126.46082872559649,127.4117431640625,418300,0.38,0
2021-08-04,127.5404939342534,128.1744318167923,125.12360859099977,125.56934356689453,294500,0.0,0
2021-08-05,126.23301300249776,126.9858095704934,125.44058681213407,126.29244232177734,158000,0.0,0
2021-08-06,126.86695459902704,128.23388943905886,126.7084663335187,127.21363067626953,184600,0.0,0
2021-08-09,127.48107241911728,129.50175993440442,127.40182828966756,128.84800720214844,297200,0.0,0
2021-08-10,128.085307675866,129.96732191942738,127.73863158061495,127.97634887695312,200400,0.0,0
2021-08-11,128.9569671840798,131.06679869666775,127.94662341708765,130.38333129882812,305900,0.0,0
2021-08-12,131.28469691656025,132.33467027182775,130.6606739722408,131.42337036132812,247800,0.0,0
2021-08-13,131.63138296674262,132.62191185207118,131.25497715375093,131.7898712158203,174300,0.0,0
2021-08-16,131.33422862171642,131.90873722104263,130.41304396170392,131.62149047851562,106300,0.0,0
2021-08-17,131.07669174044494,131.87901773477128,130.35360987218775,131.750244140625,213100,0.0,0
2021-08-18,131.0271643434581,131.83940531280157,130.78943196149302,130.79934692382812,110800,0.0,0
2021-08-19,130.19511536512525,131.69080849785968,130.15548574685877,131.1559295654297,94000,0.0,0
2021-08-20,130.84888280710658,132.6417378221169,130.6804795818727,132.25543212890625,118600,0.0,0
2021-08-23,132.89926087672532,133.27566669579477,131.23517957735388,131.7007293701172,111200,0.0,0
2021-08-24,131.69081440797015,132.4535258939845,130.9677325420008,131.7007293701172,85700,0.0,0
2021-08-25,131.81960640256625,133.22615582507353,131.68093294159436,132.8596649169922,116000,0.0,0
2021-08-26,132.3346640158088,132.51295195882255,131.22526139584008,131.403564453125,133600,0.0,0
2021-08-27,132.08704246060012,133.67187972322398,132.03751298989604,133.255859375,180600,0.0,0
2021-08-30,133.87990483739804,134.9397630204047,133.72141656811397,133.94923400878906,122300,0.0,0
2021-08-31,134.2760967018119,134.6624023723726,132.9487915890414,133.52330017089844,154100,0.0,0
2021-09-01,133.8303669240222,134.21667260961922,132.86955263420637,133.73130798339844,135800,0.0,0
2021-09-02,134.21666791809665,134.92984994569616,132.95869196465418,133.86007690429688,165500,0.0,0
2021-09-03,133.99875345684146,134.90013841739838,133.65206228300508,133.86997985839844,112700,0.0,0
2021-09-07,133.444056126347,133.444056126347,129.68994308889722,129.83853149414062,131600,0.0,0
2021-09-08,129.10553256836113,130.10597642561137,129.10553256836113,129.6404266357422,325200,0.0,0
2021-09-09,129.17488347884938,129.87815056653633,127.15419596496118,127.4117431640625,227700,0.0,0
2021-09-10,127.05514833867669,128.07539191342735,124.62834795921414,124.64815521240234,341000,0.0,0
2021-09-13,124.27175926035436,124.92551198478554,122.58786309395117,123.5783920288086,286000,0.0,0
2021-09-14,123.94487944331793,125.22266264052358,123.0435020674333,123.40009307861328,184100,0.0,0
2021-09-15,122.7265336053578,124.24204163030576,122.13221777008313,123.44961547851562,206600,0.0,0
2021-09-16,123.29113911428101,124.13308720693001,120.88415347328352,121.14169311523438,176800,0.0,0
2021-09-17,121.04263196843155,121.47846711499793,119.57665338711261,120.08182525634766,568400,0.0,0
2021-09-20,118.62574707634666,120.72566357675305,118.40782950204728,120.70585632324219,289200,0.0,0
2021-09-21,120.80491151079372,121.16150254231079,118.69508753859797,118.92290496826172,240600,0.0,0
2021-09-22,119.23987474988192,120.06201560912109,118.30878265645164,119.14082336425781,235000,0.0,0
2021-09-23,119.69551120033837,120.5077521705047,119.14081742279642,119.86390686035156,162100,0.0,0
2021-09-24,119.5172239568077,120.26012065204254,119.13091072272049,119.22006225585938,186300,0.0,0
2021-09-27,119.04175729608718,119.9827566791584,118.65545164980443,119.19033813476562,206600,0.0,0
2021-09-28,119.2299645977495,119.72522904020686,117.75407111808896,118.89318084716797,230800,0.0,0
2021-09-29,118.86346989662543,120.14125310487047,118.86346989662543,119.2398681640625,237600,0.0,0
2021-09-30,119.64599147108186,120.27992938758973,118.17010546769345,118.2196273803711,314900,0.0,0
2021-10-01,118.70497922432173,121.16149421061243,117.48663291469852,120.42850494384766,259800,0.0,0
2021-10-04,120.34927135820253,121.48838119935766,119.8440994611946,121.13179016113281,241900,0.0,0
2021-10-05,120.72566147821924,121.70629054552053,119.47760048605815,120.50775146484375,249200,0.0,0
2021-10-06,119.92333998427114,122.07278599761577,119.30920931311432,121.93411254882812,240900,0.0,0
2021-10-07,122.1124081832039,124.84627021097096,122.06288626980863,123.0831298828125,252700,0.0,0
2021-10-08,123.40999371077339,123.90525816754439,122.58786045595679,123.33075714111328,217900,0.0,0
2021-10-11,123.29113874164113,125.01465698642512,123.09302841876382,123.39019012451172,182800,0.0,0
2021-10-12,122.94445273828956,124.02412563776822,122.67700569687685,123.31094360351562,99800,0.0,0
2021-10-13,124.00431869420946,126.36177481809058,123.57839095364103,126.18347930908203,266400,0.0,0
2021-10-14,126.30234289670786,127.14429095522505,125.6783048494763,126.79759979248047,215400,0.0,0
2021-10-15,127.39192089614201,128.02585877992047,126.50044338547364,127.005615234375,193200,0.0,0
2021-10-18,126.43111001072708,127.47116839354746,125.70802813531823,126.60940551757812,221100,0.0,0
2021-10-19,126.92637314758501,127.33249362562971,125.96555890161176,126.34196472167969,143300,0.0,0
2021-10-20,126.05471991770392,127.54050582829157,125.72784354109191,126.94619750976562,180000,0.0,0
2021-10-21,126.82731365493883,128.33292181433202,126.09433194236611,127.84757232666016,139700,0.0,0
2021-10-22,127.39193138183109,128.56074831108074,126.4707391378393,126.55988311767578,131600,0.0,0
2021-10-25,126.74808476469425,127.65937715095794,125.50992356518317,126.57969665527344,216400,0.0,0
2021-10-26,126.75851502662572,127.44402084485442,125.68555895507552,126.06307983398438,188500,0.38,0
2021-10-27,125.67562160662557,126.37105679708468,124.46357092067531,124.50331115722656,202200,0.0,0
2021-10-28,124.28474180896569,125.51665880514493,124.28474180896569,125.15901184082031,218700,0.0,0
2021-10-29,122.6156920174035,124.612595327619,119.11863456567909,119.9928970336914,696400,0.0,0
2021-11-01,119.19811768613836,124.85103194067439,119.19811768613836,124.36422729492188,581800,0.0,0
2021-11-02,125.03979058483503,127.27512768519684,123.68865288668678,126.56975555419922,275500,0.0,0
2021-11-03,126.65916668245004,127.6625868021926,125.34776920681296,127.563232421875,290000,0.0,0
2021-11-04,127.6824617321846,128.93424507371626,127.52350078614403,127.71226501464844,326300,0.0,0
2021-11-05,128.6560695633689,130.80199683294012,128.28848564417984,130.64303588867188,335700,0.0,0
2021-11-08,131.09009572627446,131.40801760376718,128.22887462558734,129.78863525390625,255000,0.0,0
2021-11-09,129.37138049092397,130.61323446187865,128.904442185097,129.51046752929688,170700,0.0,0
2021-11-10,129.80851356063707,130.22577466947624,128.32821819217077,128.7355499267578,147000,0.0,0
2021-11-11,128.9243259254616,129.64956445519024,127.89109485359343,128.9839324951172,131800,0.0,0
2021-11-12,129.58001269953877,130.76226018960196,128.66600993092845,130.63311767578125,177500,0.0,0
2021-11-15,131.55704185985113,132.13326392768033,129.94760394721285,131.45770263671875,190800,0.0,0
2021-11-16,131.39808097189436,134.92494932074518,131.13978080041122,133.3651885986328,402900,0.0,0
2021-11-17,133.61355457801366,134.31891912674087,131.74580140114753,133.5738067626953,267100,0.0,0
2021-11-18,133.2658405743954,133.2658405743954,128.66600834404593,128.795166015625,258800,0.0,0
2021-11-19,128.82496640883005,130.66291641659527,128.6362021728665,129.3018341064453,212800,0.0,0
2021-11-22,129.64955837179718,130.63311220301844,127.9506954195697,127.96063995361328,274500,0.0,0
2021-11-23,127.9606380375095,129.81844675375763,127.66259004832814,128.85476684570312,155800,0.0,0
2021-11-24,128.49710964345053,129.23229264703934,126.87773480410229,127.34466552734375,220400,0.0,0
2021-11-26,125.6855576791367,128.24873849147605,125.51665978005975,125.78490447998047,167000,0.0,0
2021-11-29,127.21552199100894,127.46389278163592,124.68213689474375,125.04972839355469,228100,0.0,0
2021-11-30,123.8774241315357,124.62253654054629,118.5424165543368,118.81065368652344,593800,0.0,0
2021-12-01,119.88361211117632,121.63214460986161,115.90967943759388,116.02890014648438,786000,0.0,0
2021-12-02,116.55544455363511,119.91341492089532,116.17792367981563,118.8702621459961,578300,0.0,0
2021-12-03,118.86032482967991,119.92335150924599,116.86342155285345,118.02580261230469,368300,0.0,0
2021-12-06,119.4464832795608,120.4300294825039,118.05560534407739,119.4365463256836,615400,0.0,0
2021-12-07,120.41015748480768,120.94663930756181,118.9894762448315,119.49615478515625,377900,0.0,0
2021-12-08,119.81407103555311,120.47970295282822,118.68150080686331,120.03263854980469,210100,0.0,0
2021-12-09,119.4365510579134,120.2214036924593,118.45300481600094,118.75104522705078,193600,0.0,0
2021-12-10,119.29745923510195,120.18165863789037,118.71130023141724,118.95967102050781,168900,0.0,0
2021-12-13,118.6914322416967,119.83393937145348,117.4992479229473,117.8370361328125,217900,0.0,0
2021-12-14,117.23101898574389,118.5225501928807,116.02890520909519,116.18785858154297,292600,0.0,0
2021-12-15,116.42629943703842,118.29404513724599,116.42629943703842,117.5986099243164,309800,0.0,0
2021-12-16,118.46293035745437,119.40674391109447,117.4893211013162,117.91651916503906,242600,0.0,0
2021-12-17,117.91652157297885,117.97612813854228,114.91619811170057,115.134765625,800100,0.0,0
2021-12-20,114.07173689393436,115.21424405154059,111.63770616746133,112.92922973632812,291900,0.0,0
2021-12-21,113.48558683067785,115.13476496578298,112.96897133316892,114.63802337646484,301800,0.0,0
2021-12-22,114.30024273397258,115.52222279907711,113.66441410601938,114.63802337646484,379800,0.0,0
2021-12-23,114.91619688118543,115.80039629939233,114.37971505783375,115.5718994140625,223800,0.0,0
2021-12-27,115.87987569930628,119.2477830205408,115.84013546316584,119.10869598388672,352200,0.0,0
2021-12-28,119.5855710362642,121.30429266330952,119.27758610161372,120.64859771728516,438700,0.0,0
2021-12-29,120.65852520979328,122.6951686936633,120.65852520979328,121.30429077148438,953000,0.0,0
2021-12-30,121.70169382828416,122.69517704320893,120.81749437337515,121.08573150634766,237200,0.0,0
2021-12-31,120.81748305636883,122.07920328608044,120.43996219874305,121.68181610107422,226400,0.0,0
2022-01-03,121.64208404410476,122.19843220425409,118.51261048391444,120.03263854980469,234900,0.0,0
2022-01-04,120.21146836683121,122.11895431022413,119.17824491924121,120.5889892578125,337300,0.0,0
2022-01-05,120.4498947264894,123.33099737127225,120.4498947264894,122.2580337524414,367600,0.0,0
2022-01-06,122.73491187879355,123.1919132279815,121.21488383961567,121.7513656616211,231900,0.0,0
2022-01-07,121.92025760185702,122.98328430597401,121.17514521355982,122.8740005493164,335100,0.0,0
2022-01-10,122.14875219853145,123.08262879984346,120.8870319130711,121.25462341308594,398400,0.0,0
2022-01-11,121.48311615844108,122.17855889859001,119.9432218517698,121.72154998779297,135500,0.0,0
2022-01-12,121.5228633726816,122.19843224437409,119.83394498328798,120.50951385498047,206600,0.0,0
2022-01-13,120.8770980834961,121.53280062809121,119.58557448242802,120.8770980834961,193200,0.0,0
2022-01-14,120.48963610643716,120.69826665991235,119.08882879605375,120.39028930664062,179000,0.0,0
2022-01-18,119.82400512633222,120.60885773617319,118.05560630553802,119.5855712890625,232500,0.0,0
2022-01-19,119.97303579004478,121.1056060546646,119.71472803049143,120.62873077392578,252600,0.0,0
2022-01-20,120.03264010547066,121.51292795343885,118.03573674808955,118.05561065673828,297700,0.0,0
2022-01-21,118.44306287219446,119.28752203744156,115.07515558538338,115.62156677246094,351800,0.0,0
2022-01-24,114.83671579639196,116.48590149416965,113.2868844791937,116.267333984375,329300,0.0,0
2022-01-25,113.97238897720584,116.17792279836647,112.3629435342758,115.27384948730469,470000,0.0,0
2022-01-26,115.02548249840558,116.78395198891022,113.66441537941775,114.4393310546875,1542500,0.0,0
2022-01-27,115.02547919776646,117.52906100875599,111.93574595987837,112.90936279296875,263900,0.0,0
2022-01-28,113.08818890592944,114.34990917273706,111.71717730645472,114.30023956298828,323100,0.0,0
2022-01-31,114.26049855652649,116.57530852236022,113.48558291666436,116.53557586669922,486300,0.0,0
2022-02-01,116.32694345585479,118.15495647281023,115.69111481856818,116.71440887451172,214000,0.0,0
2022-02-02,116.3157155910426,116.6346615590438,115.62799286257635,116.2359848022461,363600,0.38,0
2022-02-03,116.05657569277348,116.99347518404538,114.53161506570142,114.8106918334961,167700,0.0,0
2022-02-04,114.30237070259723,115.64792376874912,113.28573280496096,114.88046264648438,242700,0.0,0
2022-02-07,115.23927444884738,115.64792039431171,113.95352141293411,114.36216735839844,263300,0.0,0
2022-02-08,114.62131644229476,116.05657709893913,114.36217046722915,115.66786193847656,204200,0.0,0
2022-02-09,116.694467528492,117.27255946376668,115.81736042551758,116.16621398925781,295900,0.0,0
2022-02-10,115.13959682618636,116.86390339486421,113.28572868084147,114.23259735107422,267100,0.0,0
2022-02-11,114.66118593039718,116.05657739409781,112.49833334401062,113.33556365966797,230600,0.0,0
2022-02-14,113.33555853775646,114.13292722505655,112.06974392125927,113.72427368164062,266600,0.0,0
2022-02-15,114.28243480445924,115.74758779064577,113.02658178345656,113.72427368164062,263000,0.0,0
2022-02-16,113.87378100963166,114.70104969013157,112.72756637577015,114.32229614257812,271400,0.0,0
2022-02-17,113.58474083700438,115.87717022149904,112.94684889778827,115.22930908203125,362400,0.0,0
2022-02-18,115.89709687192267,121.11983978903123,114.04322111355681,118.04998779296875,462300,0.0,0
2022-02-22,118.10978673247634,119.78425489918357,116.93367209628589,118.70780944824219,437200,0.0,0
2022-02-23,119.34570468631846,119.91382742277598,117.21275212458167,117.30245971679688,321100,0.0,0
2022-02-24,115.88713048774588,116.95360677428611,114.34223905441897,116.48516082763672,349300,0.0,0
2022-02-25,116.77420377643955,121.19957798895224,116.43531941898374,120.5716552734375,260100,0.0,0
2022-02-28,119.07659290916897,121.62816053299443,118.8872161356199,121.47865295410156,316300,0.0,0
2022-03-01,121.55839225113988,122.53516851683217,118.13968672762392,118.70780944824219,325700,0.0,0
2022-03-02,118.69784208098496,119.66464916179724,117.61143501773586,117.99018096923828,435100,0.0,0
2022-03-03,118.48853474725685,119.35567264303629,117.02338172954002,118.93705749511719,196100,0.0,0
2022-03-04,117.66127503548985,119.99356597642166,117.30245987468932,119.79422760009766,206700,0.0,0
2022-03-07,118.91712045587151,119.95369674182145,116.06653757057713,116.13630676269531,337300,0.0,0
2022-03-08,116.57485968261756,117.90048192993689,109.67764848337546,109.82715606689453,382800,0.0,0
2022-03-09,110.81389659707443,114.00335630169863,110.81389659707443,112.89701080322266,224800,0.0,0
2022-03-10,111.46175834934337,113.28573419242728,111.07304318334475,111.89034271240234,223200,0.0,0
2022-03-11,112.92691336256027,113.34552850430264,111.87039870409964,111.93020629882812,237100,0.0,0
2022-03-14,112.44849194368587,115.5283207609267,112.39865354820671,114.14289093017578,173800,0.0,0
2022-03-15,114.71101657395243,116.5449615935327,113.71430947321386,116.42535400390625,199500,0.0,0
2022-03-16,117.33235873093942,118.71778096446667,113.98342233218061,116.6047592163086,266800,0.0,0
2022-03-17,116.85393514083002,118.11975738227335,114.89042098980718,118.02008819580078,163300,0.0,0
2022-03-18,117.7111024429642,118.43870194374276,115.88712669538371,117.35228729248047,286800,0.0,0
2022-03-21,117.34232634470332,118.27922581678604,116.28581168277051,118.2692642211914,309100,0.0,0
2022-03-22,119.38557672471171,120.06333786541747,116.97354733736279,117.28252410888672,294100,0.0,0
2022-03-23,117.41209450449111,117.71110205940565,113.66447383624535,114.29239654541016,256800,0.0,0
2022-03-24,114.62131399315273,115.83729784524178,113.62460691495139,115.46851348876953,210100,0.0,0
2022-03-25,116.4652200911306,116.87387364157385,115.61802059897516,116.85393524169922,148000,0.0,0
2022-03-28,117.04331426656566,117.18285265128138,114.63128492588366,116.10640716552734,167300,0.0,0
2022-03-29,117.12304853454715,119.19619343629087,117.12304853454715,118.92708587646484,184700,0.0,0
2022-03-30,119.17626412864094,119.17626412864094,117.85064189970477,118.4287338256836,156600,0.0,0
2022-03-31,118.01012078614687,119.43541222671442,117.08318288977397,117.11308288574219,211200,0.0,0
2022-04-01,117.76094434340601,119.24603578006355,116.90377563665214,118.6280746459961,400800,0.0,0
2022-04-04,118.3290649551472,118.3290649551472,114.82065179884923,118.02008819580078,286300,0.0,0
2022-04-05,117.26259253911377,118.81745319107179,117.20278494185033,117.34233093261719,225300,0.0,0
2022-04-06,116.87387190856633,118.52840167286605,115.96686483450765,117.95030975341797,194300,0.0,0
2022-04-07,117.52173660153251,120.20287350203385,116.24594513907455,119.60485076904297,331900,0.0,0
2022-04-08,119.41547074617961,121.82750761710857,119.41547074617961,121.01020812988281,305300,0.0,0
2022-04-11,120.73112802904127,121.89728111281097,118.56827545166017,118.56827545166016,208000,0.0,0
2022-04-12,118.83738570659699,119.79422356843894,116.01670291133928,116.62469482421875,187400,0.0,0
2022-04-13,116.50509102950382,117.61143650667957,116.50509102950382,117.49182891845703,120200,0.0,0
2022-04-14,117.03334327126603,118.30912711439568,116.5748589279083,117.01341247558594,163300,0.0,0
2022-04-18,116.39545012111725,117.1529496215817,113.20599054695872,113.63457489013672,137100,0.0,0
2022-04-19,114.19272683951941,117.25261719024189,113.13621979595239,116.8439712524414,221600,0.0,0
2022-04-20,117.59150726872906,119.35567549382293,116.94364613141556,119.10649871826172,141200,0.0,0
2022-04-21,119.85402365561269,119.95369284050113,117.95030952587662,118.54833984375,178200,0.0,0
2022-04-22,118.20946060291861,118.20946060291861,116.04660801977697,116.2359848022461,179900,0.0,0
2022-04-25,116.1163728920079,116.1163728920079,111.81059868207169,115.0199966430664,379600,0.0,0
2022-04-26,114.37000274658203,115.3499984741211,110.44000244140625,110.58000183105469,295300,0.38,0
2022-04-27,110.94000244140625,112.98999786376953,110.56999969482422,111.0999984741211,231500,0.0,0
2022-04-28,111.18000030517578,112.23999786376953,109.55000305175781,112.0999984741211,289200,0.0,0
2022-04-29,112.5199966430664,116.44999694824219,112.5199966430664,114.83000183105469,640200,0.0,0
2022-05-02,115.41999816894531,116.97000122070312,112.06999969482422,113.38999938964844,457000,0.0,0
2022-05-03,112.98999786376953,115.37000274658203,112.63999938964844,113.83000183105469,225400,0.0,0
2022-05-04,113.36000061035156,116.77999877929688,112.72000122070312,116.75,346900,0.0,0
2022-05-05,115.48999786376953,116.18000030517578,111.87000274658203,112.80000305175781,179000,0.0,0
2022-05-06,111.69000244140625,111.72000122070312,109.76000213623047,111.2300033569336,331800,0.0,0
2022-05-09,110.0,111.0999984741211,106.66000366210938,107.01000213623047,276700,0.0,0
2022-05-10,107.55999755859375,108.62999725341797,103.94000244140625,104.54000091552734,411800,0.0,0
2022-05-11,104.38999938964844,107.41999816894531,103.51000213623047,104.05999755859375,297800,0.0,0
2022-05-12,103.72000122070312,106.66000366210938,103.25,106.44999694824219,389300,0.0,0
2022-05-13,107.0,108.29000091552734,106.76000213623047,107.51000213623047,226900,0.0,0
2022-05-16,107.29000091552734,108.41999816894531,106.3499984741211,108.33000183105469,202500,0.0,0
2022-05-17,110.12999725341797,110.38999938964844,108.22000122070312,108.95999908447266,311200,0.0,0
2022-05-18,107.98999786376953,108.9000015258789,103.56999969482422,104.06999969482422,325900,0.0,0
2022-05-19,103.38999938964844,104.5999984741211,102.26000213623047,103.48999786376953,357000,0.0,0
2022-05-20,104.9800033569336,105.30000305175781,97.19000244140625,99.72000122070312,796300,0.0,0
2022-05-23,100.94999694824219,104.58999633789062,99.66999816894531,104.22000122070312,545200,0.0,0
2022-05-24,104.5,105.62000274658203,102.81999969482422,104.94999694824219,567400,0.0,0
2022-05-25,103.4800033569336,105.2699966430664,102.4800033569336,104.44999694824219,493400,0.0,0
2022-05-26,105.69999694824219,106.94999694824219,105.27999877929688,106.52999877929688,188200,0.0,0
2022-05-27,106.95999908447266,108.93000030517578,106.95999908447266,108.88999938964844,178000,0.0,0
2022-05-31,108.08000183105469,109.43000030517578,106.3499984741211,107.08999633789062,306100,0.0,0
2022-06-01,107.48999786376953,107.91999816894531,105.62999725341797,107.25,313900,0.0,0
2022-06-02,107.5999984741211,110.02999877929688,106.83000183105469,109.83000183105469,145400,0.0,0
2022-06-03,108.72000122070312,109.76000213623047,108.23999786376953,108.80000305175781,139800,0.0,0
2022-06-06,109.58999633789062,110.80999755859375,108.33000183105469,109.25,207400,0.0,0
2022-06-07,108.63999938964844,110.33999633789062,108.4000015258789,110.18000030517578,132900,0.0,0
2022-06-08,108.95999908447266,109.38999938964844,107.26000213623047,107.70999908447266,157700,0.0,0
2022-06-09,106.7699966430664,107.69999694824219,105.80000305175781,105.83000183105469,193800,0.0,0
2022-06-10,103.58000183105469,105.88999938964844,103.12999725341797,105.19999694824219,266800,0.0,0
2022-06-13,102.87000274658203,103.2300033569336,101.05000305175781,102.01000213623047,252100,0.0,0
2022-06-14,101.61000061035156,102.27999877929688,98.38999938964844,99.5199966430664,227900,0.0,0
2022-06-15,100.30000305175781,101.23999786376953,98.54000091552734,100.37000274658203,283300,0.0,0
2022-06-16,98.88999938964844,98.88999938964844,94.02999877929688,94.7699966430664,620400,0.0,0
2022-06-17,94.48999786376953,98.45999908447266,94.4800033569336,97.5,458500,0.0,0
2022-06-21,97.9800033569336,98.69999694824219,97.08999633789062,97.19000244140625,236100,0.0,0
2022-06-22,96.37000274658203,98.83999633789062,96.23999786376953,98.45999908447266,228200,0.0,0
2022-06-23,98.62000274658203,99.31999969482422,97.16999816894531,98.93000030517578,152100,0.0,0
2022-06-24,100.05000305175781,102.6500015258789,99.66999816894531,102.62000274658203,327300,0.0,0
2022-06-27,102.62000274658203,104.1500015258789,101.98999786376953,103.56999969482422,185200,0.0,0
2022-06-28,104.22000122070312,104.37000274658203,101.9800033569336,102.69999694824219,280200,0.0,0
2022-06-29,102.4800033569336,103.88999938964844,101.33999633789062,103.38999938964844,220900,0.0,0
2022-06-30,102.33000183105469,103.5,101.37000274658203,103.20999908447266,205900,0.0,0
2022-07-01,103.33999633789062,104.66999816894531,102.16000366210938,104.48999786376953,262300,0.0,0
2022-07-05,103.33999633789062,103.33999633789062,100.97000122070312,102.91999816894531,230200,0.0,0
2022-07-06,103.52999877929688,103.55000305175781,101.51000213623047,102.63999938964844,286400,0.0,0
2022-07-07,102.44999694824219,103.30000305175781,101.8499984741211,103.11000061035156,221200,0.0,0
2022-07-08,102.7300033569336,103.02999877929688,100.0,100.01000213623047,208100,0.0,0
2022-07-11,99.80999755859375,100.12000274658203,98.47000122070312,99.55000305175781,186900,0.0,0
2022-07-12,99.47000122070312,101.8499984741211,99.22000122070312,100.51000213623047,284300,0.0,0
2022-07-13,99.7300033569336,101.30999755859375,99.51000213623047,100.66999816894531,202500,0.0,0
2022-07-14,99.58000183105469,99.91000366210938,98.33999633789062,99.30000305175781,199800,0.0,0
2022-07-15,100.80999755859375,100.80999755859375,99.20999908447266,100.01000213623047,195300,0.0,0
2022-07-18,100.56999969482422,100.94999694824219,97.69999694824219,98.0999984741211,179900,0.0,0
2022-07-19,98.55000305175781,101.08999633789062,98.55000305175781,101.02999877929688,635400,0.0,0
2022-07-20,100.66999816894531,102.4800033569336,100.66000366210938,101.81999969482422,458900,0.0,0
2022-07-21,101.91000366210938,103.5999984741211,101.58000183105469,103.4800033569336,138900,0.0,0
2022-07-22,103.61000061035156,103.9800033569336,102.33000183105469,103.5999984741211,214600,0.0,0
2022-07-25,103.72000122070312,104.51000213623047,102.91000366210938,103.91999816894531,267400,0.0,0
2022-07-26,103.11000061035156,103.87999725341797,101.87999725341797,103.83000183105469,262200,0.0,0
