Date,Open,High,Low,Close,Volume,Dividends,Stock Splits
2019-07-22,119.15927138789118,119.52588295831883,118.49357479043549,118.82160186767578,153800,0.0,0
2019-07-23,119.52587603751135,120.31699059362738,119.03383913046265,120.12403869628906,183600,0.0,0
2019-07-24,119.64166781540766,120.16264684163625,118.51287624492369,118.94702911376953,215300,0.0,0
2019-07-25,118.66724871938264,119.90215874786499,118.35852121226206,118.5900650024414,273700,0.0,0
2019-07-26,118.79265039264462,120.3748795689979,118.59969848748675,120.10474395751953,198000,0.0,0
2019-07-29,120.06614238147786,121.2335256032721,119.18820171526828,120.53888702392578,277400,0.0,0
2019-07-30,119.78421396946132,120.52923368170052,118.97145781055868,119.79388427734375,221700,0.36,0
2019-07-31,119.48427102454414,119.84227174700916,116.04942915460197,117.09439086914062,621400,0.0,0
2019-08-01,116.29129811911108,116.29129811911108,111.11483466886439,113.7466049194336,533000,0.0,0
2019-08-02,112.82743720118839,114.50131579895516,111.89857830529948,114.19169616699219,316600,0.0,0
2019-08-05,112.6629491747508,115.16893182384425,112.47910998761233,113.28218841552734,462500,0.0,0
2019-08-06,113.73695462986892,116.89120250474446,113.57246342382378,115.83656311035156,356400,0.0,0
2019-08-07,115.23665874779574,118.2941589015964,114.84963238401018,117.713623046875,268700,0.0,0
2019-08-08,118.50703544344086,119.977726912389,117.64589819278888,118.88438415527344,374300,0.0,0
2019-08-09,118.75859248241993,119.23270331580456,117.12341724476134,117.1524429321289,186400,0.0,0
2019-08-12,117.09438572052157,117.7329803786914,116.03006867215302,116.12682342529297,135600,0.0,0
2019-08-13,115.89460322327356,117.85875337745611,115.18828692622876,117.28789520263672,216300,0.0,0
2019-08-14,116.1171603528215,116.81380642990187,115.13024261631934,115.22699737548828,375800,0.0,0
2019-08-15,115.38178595722047,116.34934810361226,114.1239522141458,114.49163055419922,238400,0.0,0
2019-08-16,115.05282776625614,116.82346102849314,114.12396153378283,116.34935760498047,197800,0.0,0
2019-08-19,117.268534571899,117.53945818612982,116.1074628957074,116.32032775878906,206400,0.0,0
2019-08-20,116.2042231918351,116.2042231918351,114.61742171364654,115.02379608154297,141800,0.0,0
2019-08-21,115.77849529266524,115.94297909343942,115.03346827188903,115.45919799804688,298500,0.0,0
2019-08-22,115.94297559873478,116.80410533202462,115.17860060522437,116.62994384765625,227100,0.0,0
2019-08-23,116.63962559972127,117.39432293097198,116.0010310074853,116.3590316772461,296100,0.0,0
2019-08-26,116.80410722433209,117.29756600168908,116.02038422293431,117.06534576416016,237100,0.0,0
2019-08-27,117.53946700521577,117.87811232102102,116.89119467848658,117.5588150024414,183000,0.0,0
2019-08-28,117.54913432392347,118.17805125552118,116.71703020800908,117.90713500976562,221100,0.0,0
2019-08-29,118.89403154607243,119.43587135706568,117.22015319970163,117.74263763427734,184600,0.0,0
2019-08-30,118.41027641155226,119.31978737259568,117.2975856270253,118.2554702758789,183700,0.0,0
2019-09-03,116.89120546561605,117.15245143471326,114.7238678625387,115.76883697509766,262000,0.0,0
2019-09-04,116.81380096648186,118.09098292075667,116.29131643310836,117.98455047607422,160800,0.0,0
2019-09-05,119.00047670779838,119.21334157969608,117.05568193872722,117.26853942871094,230100,0.0,0
2019-09-06,117.03632245786493,117.88777453369651,116.41708324236673,116.95891571044922,239300,0.0,0
2019-09-09,117.62654378433562,117.62654378433562,114.91736650054324,115.23666381835938,232900,0.0,0
2019-09-10,115.12057270025706,115.44954035893613,112.3533437634832,115.24635314941406,258200,0.0,0
2019-09-11,115.04314442042097,115.65270593496525,112.9338585774741,114.78189849853516,231700,0.0,0
2019-09-12,115.21730624879856,115.81719007640464,114.15298932641699,114.22071838378906,163300,0.0,0
2019-09-13,114.70450776221605,115.11088213581156,113.84337794972903,114.55937194824219,269900,0.0,0
2019-09-16,113.90141992226003,113.90141992226003,112.11143138274794,112.70164489746094,192100,0.0,0
2019-09-17,112.43071667563018,114.03687335649704,112.30493625608202,113.21444702148438,216700,0.0,0
2019-09-18,113.09835720327621,115.09153318870055,112.77905987107293,114.4626235961914,253400,0.0,0
2019-09-19,114.49164719611048,115.09153108964485,113.82402685584604,114.02721405029297,304200,0.0,0
2019-09-20,114.30779543673307,115.15924749825562,113.7466076002708,114.22071838378906,527900,0.0,0
2019-09-23,113.7950005527615,115.1108858465593,113.7950005527615,114.26910400390625,164300,0.0,0
2019-09-24,114.75287905937824,115.61400885395858,114.41423375509058,114.66580200195312,187100,0.0,0
2019-09-25,114.85932312369877,115.56564687150502,114.82061974473126,115.25602722167969,202100,0.0,0
2019-09-26,115.69142460452186,115.79785704870869,114.67548123070738,115.06250762939453,117900,0.0,0
2019-09-27,115.3430868813326,115.4398416231926,114.23038889515844,114.82060241699219,149100,0.0,0
2019-09-30,115.09152342085075,115.53660853931301,114.01752876325506,114.60774230957031,219700,0.0,0
2019-10-01,115.42050376259195,115.8462335224554,113.688566418137,113.8530502319336,143300,0.0,0
2019-10-02,113.20477837551107,113.22412637163575,111.3277053291235,111.6082992553711,225600,0.0,0
2019-10-03,111.26965693732518,111.49219949924199,110.08922983044904,111.25997924804688,241100,0.0,0
2019-10-04,111.56959103001553,113.80466465379308,111.35672617233067,113.5240707397461,162400,0.0,0
2019-10-07,112.9048329125446,113.64017485284366,112.46942550329834,112.77904510498047,216100,0.0,0
2019-10-08,112.24690573250192,113.94013977624591,110.79556226643564,111.05680084228516,221900,0.0,0
2019-10-09,112.06305032144483,113.09834154887501,111.63732060410076,112.70164489746094,134700,0.0,0
2019-10-10,112.7016616138367,113.43700365770093,111.97598987813663,112.53717041015625,102400,0.0,0
2019-10-11,113.12738440817749,114.17235348290085,112.46944173689775,112.55652618408203,213700,0.0,0
2019-10-14,112.5468345767666,113.08866704543749,111.9856467302639,112.09207916259766,131900,0.0,0
2019-10-15,112.56619318497043,112.85646482450333,111.31804432795653,111.4438247680664,182500,0.0,0
2019-10-16,111.40510609807433,111.85018380419164,110.68911216926939,111.72440338134766,213700,0.0,0
2019-10-17,111.82116444714185,113.28218545291179,111.75343538763802,112.76937866210938,153800,0.0,0
2019-10-18,112.64359503899715,114.17234516111898,112.64359503899715,113.95948028564453,219100,0.0,0
2019-10-21,114.53034748476291,115.24634149092132,113.97883729130461,114.07559204101562,142900,0.0,0
2019-10-22,114.20136419271844,114.22071957040504,112.83710534236081,112.87580871582031,85400,0.0,0
2019-10-23,112.75002617082829,114.10461477750123,112.72100048485689,113.56278228759766,104800,0.0,0
2019-10-24,113.64019251747764,114.2981351960643,112.95322415014545,113.53376007080078,122500,0.0,0
2019-10-25,113.40797132616468,114.77223765268384,113.40797132616468,114.05623626708984,120300,0.0,0
2019-10-28,114.13363187435243,114.9463879299579,114.01752175729067,114.3658447265625,134100,0.0,0
2019-10-29,113.9873513990876,115.61782215355714,113.9873513990876,115.01610565185547,136600,0.36,0
2019-10-30,115.08403809721224,116.103077659729,114.29791340102447,115.73428344726562,148200,0.0,0
2019-10-31,115.5304857518884,116.10308792749414,114.15235170481748,114.6667251586914,316000,0.0,0
2019-11-01,110.31879407805773,112.15307275170025,106.31055686611032,107.5237045288086,583300,0.0,0
2019-11-04,107.73721802169709,108.46510660796261,105.21387240353641,105.46620178222656,553700,0.0,0
2019-11-05,105.99029302499645,106.99963285383159,105.23329000448668,105.45651245117188,385300,0.0,0
2019-11-06,105.46620695798235,106.5725970710448,105.22357741732013,106.26203155517578,369800,0.0,0
2019-11-07,106.3008473057638,107.2713654148707,105.69913081697548,106.1746826171875,189400,0.0,0
2019-11-08,106.08733438602606,107.6595764217173,105.660311444003,105.7864761352539,303500,0.0,0
2019-11-11,105.28180251902783,106.52406445243804,105.28180251902783,105.37885284423828,181500,0.0,0
2019-11-12,105.43710350326404,106.07764911100813,104.97125888351081,105.02948760986328,185400,0.0,0
2019-11-13,105.12651479734829,106.82492138351587,104.83535642079067,106.38819122314453,385400,0.0,0
2019-11-14,106.2523390502192,107.3199076220431,106.2523390502192,107.21315002441406,224000,0.0,0
2019-11-15,107.46548093778819,107.46548093778819,106.4658409962791,106.71817779541016,307300,0.0,0
2019-11-18,106.67934402825473,107.67897645143228,106.64052241708232,107.08695983886719,352100,0.0,0
2019-11-19,107.4654785982429,108.11572398524572,107.19372729499764,107.24225616455078,258700,0.0,0
2019-11-20,106.8734455157893,108.55243752013187,106.8734455157893,107.43634033203125,961400,0.0,0
2019-11-21,107.95072553197106,108.74655003364093,106.93167862172054,108.01866149902344,244200,0.0,0
2019-11-22,108.35835041261511,108.37775751719956,106.75699402140096,106.87345886230469,151700,0.0,0
2019-11-25,107.00932552644295,107.78573554741834,106.92197504895984,107.6789779663086,264400,0.0,0
2019-11-26,108.23218394905288,109.32887422901528,107.69840339385,109.24152374267578,221900,0.0,0
2019-11-27,109.65882669806643,110.23143616813387,109.30943962586437,109.50354766845703,145500,0.0,0
2019-11-29,109.31916508723552,109.87236014295112,108.63980533616932,108.81449890136719,89300,0.0,0
2019-12-02,109.20269204816289,109.39680010852099,108.32923169218033,108.70773315429688,273300,0.0,0
2019-12-03,108.22248139702249,109.96940963107859,107.86338701453023,109.38710021972656,246400,0.0,0
2019-12-04,109.41621651402426,110.13440529170585,108.44569834312418,108.4845199584961,284600,0.0,0
2019-12-05,108.59126926945498,109.33857235056637,108.35834699945,108.64949798583984,243700,0.0,0
2019-12-06,109.4647322130948,109.66854011592487,108.50392141276305,108.77566528320312,322100,0.0,0
2019-12-09,108.99887514630541,109.51324850600685,108.39715871999721,109.30944061279297,255000,0.0,0
2019-12-10,109.15417444571149,109.5035615622437,108.05748422819315,108.63980102539062,219500,0.0,0
2019-12-11,108.66891133210741,109.44532135864239,108.60097536222979,109.251220703125,141100,0.0,0
2019-12-12,109.19301040805345,111.06611092720047,109.19301040805345,110.81377410888672,407000,0.0,0
2019-12-13,110.61966208874304,111.98808883108087,109.98882380981507,110.60995483398438,380400,0.0,0
2019-12-16,111.08550268120258,111.32813221022963,109.95970551683925,110.94963073730469,194200,0.0,0
2019-12-17,110.76522741600172,111.36695129996203,109.72677335147482,110.00822448730469,248900,0.0,0
2019-12-18,110.00822192407571,110.02763643200635,109.04741110653711,109.74618530273438,204000,0.0,0
2019-12-19,109.8238328486333,110.13439834756105,109.47444573678139,109.92088317871094,172100,0.0,0
2019-12-20,110.36732978100088,111.7454638340972,110.36732978100088,111.57077026367188,473500,0.0,0
2019-12-23,111.54165098114774,111.96868133544922,110.86229123972797,111.96868133544922,144300,0.0,0
2019-12-24,111.91043666420953,112.23070940547424,111.2990129436303,111.34754180908203,63800,0.0,0
2019-12-26,111.3572551441255,111.47371999263453,110.44497307976967,111.43489837646484,110900,0.0,0
2019-12-27,111.823105881409,111.94927057919793,110.78465172501463,111.62899780273438,87800,0.0,0
2019-12-30,111.55134348923484,112.38598957805134,111.28929947756704,112.34716796875,193000,0.0,0
2019-12-31,112.30836167458737,112.7742062407994,111.62899452586818,112.21131134033203,310700,0.0,0
2020-01-02,112.09484150114109,113.04595250517622,109.60061025915579,110.32849884033203,362700,0.0,0
2020-01-03,109.48414642088983,111.45429701389315,109.48414642088983,110.67788696289062,221500,0.0,0
2020-01-06,110.30909008853335,111.11461447894311,110.2120323555871,110.68759155273438,282400,0.0,0
2020-01-07,110.21202279926122,110.64876034625422,109.41619832757854,109.58119201660156,234700,0.0,0
2020-01-08,109.74620049227164,110.81376903779083,109.74620049227164,109.88207244873047,331000,0.0,0
2020-01-09,110.41584175301281,111.66781099932456,109.97911156673769,111.27960968017578,329100,0.0,0
2020-01-10,111.27962171280112,112.74509888131998,111.19227122342159,112.37630462646484,196800,0.0,0
2020-01-13,112.08513347588158,113.12358754837186,111.96867604255233,112.77420043945312,248500,0.0,0
2020-01-14,112.82272551503343,112.89066148368107,111.74544986614556,112.70626068115234,160800,0.0,0
2020-01-15,112.89067118141043,113.77384625416312,112.48305533450883,113.26917266845703,241500,0.0,0
2020-01-16,113.7544318793454,114.78317875259147,113.72531751945593,114.73465728759766,187300,0.0,0
2020-01-17,114.82200170578089,115.11316011700151,113.60885399980496,113.86119079589844,190600,0.0,0
2020-01-21,113.22063279610926,113.32738296340014,111.9492491882379,112.22099304199219,189300,0.0,0
2020-01-22,112.2792411686241,112.9974224881597,112.07543325650448,112.25982666015625,141800,0.0,0
2020-01-23,111.92985590333772,115.5110627101976,111.38636072427347,113.90971374511719,301000,0.0,0
2020-01-24,113.93882762639501,114.6764234634493,113.18182468510021,113.66708374023438,213000,0.0,0
2020-01-27,112.13365202446025,113.80294419025294,111.82308655671729,113.0556411743164,239100,0.0,0
2020-01-28,113.32824884719957,113.49374660673682,112.5104825415353,112.89989471435547,178600,0.36,0
2020-01-29,112.84146952426926,113.98049384100864,112.47152467008772,112.87067413330078,211200,0.0,0
2020-01-30,111.97503118106744,113.91235454788196,111.30330284821459,113.45479583740234,153200,0.0,0
2020-01-31,112.8414843123175,113.30877297289742,112.0918645876507,112.45207214355469,300700,0.0,0
2020-02-03,112.54943028652997,114.4283372465989,112.452079095176,114.13627624511719,271300,0.0,0
2020-02-04,114.67171683316997,115.35318258755498,113.1238054376102,113.85395050048828,313700,0.0,0
2020-02-05,114.03892545997128,115.15848273307937,113.65925061314452,114.74960327148438,188100,0.0,0
2020-02-06,114.92482475160713,115.80099280037571,114.35044016211017,114.41858673095703,247800,0.0,0
2020-02-07,113.97076509202003,114.56461694518136,113.14326892156507,113.61055755615234,144500,0.0,0
2020-02-10,113.33797970500363,113.99997817605298,112.4228696328321,112.7343978881836,142600,0.0,0
2020-02-11,112.94855590651747,113.79552674520363,112.34497415180617,112.97776794433594,197600,0.0,0
2020-02-12,113.05564671623988,113.13353063049361,111.27409859905374,111.6732406616211,448200,0.0,0
2020-02-13,111.54668612510596,113.46453482749871,110.68024799469791,113.12379455566406,200400,0.0,0
2020-02-14,113.51320566562688,114.63276279625455,113.09458890991111,113.58135223388672,216800,0.0,0
2020-02-18,113.38666092553908,113.54242134213332,112.03345934720203,112.20869445800781,271300,0.0,0
2020-02-19,112.31577935331785,113.53268774240782,111.6829855055072,111.9653091430664,289200,0.0,0
2020-02-20,111.57589241650889,112.60782831154052,110.72892153842012,111.88742065429688,378400,0.0,0
2020-02-21,108.56768939066376,111.61483257697567,106.27017331611839,109.01551818847656,720600,0.0,0
2020-02-24,107.57469796267011,108.2659010130404,106.2799056978239,106.31884765625,447900,0.0,0
2020-02-25,106.32858744320629,106.66932030298142,103.88503334467157,104.10894775390625,641400,0.0,0
2020-02-26,101.24677687599618,103.73900285309267,100.04933576603288,101.90877532958984,504500,0.0,0
2020-02-27,100.66265936235298,101.9866562303622,99.25104123161276,99.68913269042969,670500,0.0,0
2020-02-28,97.08981833884746,99.50416032784877,96.6906688378694,98.39434051513672,690800,0.0,0
2020-03-02,98.92977931189614,101.01312571637784,98.14121768698647,100.837890625,331800,0.0,0
2020-03-03,101.04233548374098,102.92124228207516,99.49442419300247,100.03960418701172,353300,0.0,0
2020-03-04,102.59997805358579,104.7806757762713,101.67513066194422,104.59571075439453,294500,0.0,0
2020-03-05,102.55129966789544,102.99912848888496,99.92278053207322,101.22731018066406,273800,0.0,0
2020-03-06,98.9200426532739,104.56650014586987,98.64745638199608,104.45941162109375,624000,0.0,0
2020-03-09,100.02013257970412,102.22030503440786,96.84644083780638,98.7642822265625,597100,0.0,0
2020-03-10,100.85735524583384,101.23703002929686,96.75880911165258,101.23703002929688,522300,0.0,0
2020-03-11,98.97846194322187,98.97846194322187,95.3277366656399,96.45703125,705800,0.0,0
2020-03-12,90.03175514593414,93.84797814018359,85.18358876852928,91.90092468261719,843100,0.0,0
2020-03-13,95.48349637615047,96.80749322490408,88.70775172939784,93.8382339477539,596000,0.0,0
2020-03-16,85.08624674066118,91.97881850501155,85.08624674066118,85.55353546142578,667400,0.0,0
2020-03-17,87.56872833622391,94.38341559748397,87.1111770020004,93.89665222167969,595700,0.0,0
2020-03-18,89.26265563415869,94.4126121992581,87.94838879248056,94.1886978149414,762000,0.0,0
2020-03-19,93.93558571048254,98.54037009832571,91.11235689997581,96.26231384277344,354700,0.0,0
2020-03-20,96.19417273609356,97.33320464226271,86.77043379824626,90.06095886230469,727300,0.0,0
2020-03-23,89.62286069782013,90.77162243775874,77.72636388949458,81.70809173583984,698800,0.0,0
2020-03-24,84.95966521194825,85.98187113815824,80.50091891868108,85.72875213623047,535600,0.0,0
2020-03-25,86.64387884914079,91.18051696977402,83.93747573190306,87.79264068603516,576200,0.0,0
2020-03-26,88.44490047282791,94.76308676639697,87.83158131693844,93.65326690673828,447000,0.0,0
2020-03-27,92.03722575584432,93.30280615579079,89.66181795629103,91.51152038574219,482000,0.0,0
2020-03-30,92.45583481094852,98.28725784866752,91.87172025796198,97.8199691772461,435400,0.0,0
2020-03-31,97.85889817424679,100.02986592914321,94.86044165790028,96.90484619140625,531000,0.0,0
2020-04-01,95.12328430176056,96.06760630313761,92.91338216210573,93.66299438476562,296500,0.0,0
2020-04-02,93.27358843757784,94.56838069905508,91.62833340601581,93.6045913696289,455700,0.0,0
2020-04-03,92.36820815175288,94.84096679490956,90.88845087539329,91.69647979736328,370300,0.0,0
2020-04-06,94.50024364211185,98.50143927689624,94.50024364211185,98.09255981445312,503200,0.0,0
2020-04-07,100.80869388626193,100.80869388626193,96.59332144541742,98.44302368164062,378000,0.0,0
2020-04-08,99.93249590175755,102.50260524676494,97.97570557291634,101.35384368896484,328500,0.0,0
2020-04-09,102.25924590766397,105.17008867374967,101.4706916539806,104.43020629882812,399300,0.0,0
2020-04-13,104.15762048764704,104.58597461626367,99.59178527433527,99.64045715332031,234000,0.0,0
2020-04-14,101.79194061561373,102.58050222539988,100.6237116471123,101.2662353515625,239700,0.0,0
2020-04-15,99.57231628725005,101.43175597265467,97.94652837307372,98.258056640625,441400,0.0,0
2020-04-16,100.30245597033344,100.30245597033344,97.04114296992277,99.15369415283203,294000,0.0,0
2020-04-17,101.11047885953575,102.23976591570461,99.68913083625449,100.21483612060547,256200,0.0,0
2020-04-20,99.16343033156659,105.08247445464622,98.45275257196192,104.10894775390625,856400,0.0,0
2020-04-21,103.04780493423587,104.1576248343123,101.36360781719867,103.31066131591797,475500,0.0,0
2020-04-22,104.15762163529355,104.20630094223431,101.36360470399325,103.48589324951172,436400,0.0,0
2020-04-23,103.79740987105903,104.47887552734757,102.17161478691021,102.23976135253906,347600,0.0,0
2020-04-24,102.61945200655407,102.61945200655407,100.36086295436434,101.36360168457031,377000,0.0,0
2020-04-27,106.43567064422855,111.07938950613826,104.05052589041108,109.5996322631836,457700,0.0,0
2020-04-28,109.97076424554842,111.98266786848615,108.398357496388,108.58392333984375,274600,0.36,0
2020-04-29,109.93168479435141,110.97669964627727,107.25566677702416,107.50959777832031,236600,0.0,0
2020-04-30,106.44505568273001,107.49983921605718,103.8569323181064,104.57965850830078,730600,0.0,0
2020-05-01,107.97838807642853,107.97838807642853,102.26498884131736,103.6615982055664,506200,0.0,0
2020-05-04,103.0658456434697,104.82381815210428,102.62635624193415,104.31595611572266,324300,0.0,0
2020-05-05,104.28666007741977,105.11681088234914,102.93888609240193,103.09514617919922,332500,0.0,0
2020-05-06,104.27689627406306,104.55036447817659,102.31383553330599,102.4114990234375,234000,0.0,0
2020-05-07,103.0560759404193,104.39408874919452,102.68495172651453,103.00724792480469,285200,0.0,0
2020-05-08,104.48198928098951,105.46840012344394,104.07179073973799,105.0191421508789,257000,0.0,0
2020-05-11,104.16947010601103,104.99962093668803,103.60301143990331,103.82763671875,344000,0.0,0
2020-05-12,103.94483799561229,103.94483799561229,101.42507973583221,101.52274322509766,233300,0.0,0
2020-05-13,100.97581671751611,100.97581671751611,99.2764482445683,100.0284652709961,267100,0.0,0
2020-05-14,98.6514037236384,100.22381058284118,96.79576751295686,100.06754302978516,246200,0.0,0
2020-05-15,99.10065317620281,99.3252784502016,97.71381229359147,99.12995147705078,476400,0.0,0
2020-05-18,101.63993721709997,102.69472071498261,100.54608683582397,101.71807098388672,304500,0.0,0
2020-05-19,101.36648081828073,103.28071347891773,100.75119414383377,101.3078842163086,214700,0.0,0
2020-05-20,102.01105192118122,103.0560667379691,101.64969632316526,101.97199249267578,146200,0.0,0
2020-05-21,102.00129966755304,103.24164153980529,102.00129966755304,102.63611602783203,233900,0.0,0
2020-05-22,102.51893511460052,102.79239587818144,101.28835422723941,102.6458969116211,151200,0.0,0
2020-05-26,104.83357903375924,107.61703674097862,104.28665756626869,106.99198150634766,332200,0.0,0
2020-05-27,108.47649107805698,110.01959952318741,107.77330204223823,109.92193603515625,290400,0.0,0
2020-05-28,110.68372519334727,110.68372519334727,108.34953273431542,108.9941177368164,233600,0.0,0
2020-05-29,108.50578739764266,108.92574709462856,107.14824482043751,108.78901672363281,215300,0.0,0
2020-06-01,108.68159846904489,109.26758691226726,108.01747624639357,108.81832885742188,277000,0.0,0
2020-06-02,109.14060502045069,109.84379400338584,108.34952114027163,109.45313262939453,224900,0.0,0
2020-06-03,110.06842143501908,111.43573254533685,110.06842143501908,110.63488006591797,196600,0.0,0
2020-06-04,110.84974385671813,110.84974385671813,108.42764925865742,109.52149963378906,182500,0.0,0
2020-06-05,111.14274421384326,111.61153191980974,110.27352653491944,110.75208282470703,235500,0.0,0
2020-06-08,110.18563102258231,111.33807809388468,109.66800781662602,110.92788696289062,244700,0.0,0
2020-06-09,110.14655480675542,110.80090833428629,109.29687431469911,109.84379577636719,292100,0.0,0
2020-06-10,110.3614168039944,110.3614168039944,108.23232014636308,109.03317260742188,366600,0.0,0
2020-06-11,107.43147083895383,108.02722777334226,101.77666797973572,101.81573486328125,376900,0.0,0
2020-06-12,104.19877982969034,105.0191621660548,100.67307310764153,102.89983367919922,247300,0.0,0
2020-06-15,101.02465296668205,104.0522657146876,100.66328987515136,102.94865417480469,235900,0.0,0
2020-06-16,105.77117061816826,106.54271736147562,104.36479259758991,104.88241577148438,252600,0.0,0
2020-06-17,105.66374582437588,106.11300384493548,103.88624345988062,104.41363525390625,208800,0.0,0
2020-06-18,103.79833220970986,105.44887263935914,103.4955731775242,104.49175262451172,217800,0.0,0
2020-06-19,104.70660875602789,105.46839429572991,103.62252704145332,105.0875015258789,303700,0.0,0
2020-06-22,104.44293168733121,105.15588186652333,103.03655359509405,105.03868865966797,241900,0.0,0
2020-06-23,105.92743099234461,105.92743099234461,104.42338948317384,104.9312515258789,228300,0.0,0
2020-06-24,104.09133332718123,105.00937903577515,103.37837572302406,103.46627807617188,433900,0.0,0
2020-06-25,102.94864384546453,105.11679982336813,101.35670013692491,105.0875015258789,263600,0.0,0
2020-06-26,104.61871596935192,106.15205566253098,103.69089430645964,105.20470428466797,924200,0.0,0
2020-06-29,105.71256393218121,107.61703536279704,105.37073801937716,106.69898223876953,189300,0.0,0
2020-06-30,106.58178426300228,109.65823245789892,106.58178426300228,109.36524200439453,421800,0.0,0
2020-07-01,109.29686378035986,110.03911213501337,108.35927357751636,109.85355377197266,247900,0.0,0
2020-07-02,110.79115034912827,112.32449016307265,110.79115034912827,112.2854232788086,271400,0.0,0
2020-07-06,113.28159941792462,113.93596039605279,111.51386580161007,112.56864929199219,330900,0.0,0
2020-07-07,111.96312633058741,113.29137058178388,111.5138683413954,112.46121978759766,346500,0.0,0
2020-07-08,112.10962949538695,113.04721239300657,109.9609955018346,110.29306030273438,205900,0.0,0
2020-07-09,110.5176950812047,111.47480771368963,108.8085579290921,111.10368347167969,307200,0.0,0
2020-07-10,111.50410637361999,112.48075617796367,109.77543949848018,112.2658920288086,244500,0.0,0
2020-07-13,112.27564486922279,113.55505354910757,110.62510454693188,110.7813720703125,289000,0.0,0
2020-07-14,111.10367158446047,113.77968966710624,111.03530640374038,113.59412384033203,193600,0.0,0
2020-07-15,114.69774519796539,115.52789596752146,113.81875896204001,115.14700317382812,326900,0.0,0
2020-07-16,115.28374132527547,115.72323074730149,114.0726976802233,114.5024185180664,252900,0.0,0
2020-07-17,115.24466554210841,116.91473564861148,114.60007315824095,116.61197662353516,249000,0.0,0
2020-07-20,116.6119868219086,116.9538127593484,115.50836778657163,116.50455474853516,183200,0.0,0
2020-07-21,116.78777465261248,117.07100396397767,114.92237012124907,115.42046356201172,394300,0.0,0
2020-07-22,115.48882403152402,116.20178157259231,114.66844188138639,115.73298645019531,414600,0.0,0
2020-07-23,115.62556486093477,116.4459545366126,115.33256695149703,115.67440032958984,286700,0.0,0
2020-07-24,116.22133570318529,116.99289000242332,115.61581009522388,116.07483673095703,244700,0.0,0
2020-07-27,116.05529602034315,117.63746390706932,115.73299980221503,117.05147552490234,281800,0.0,0
2020-07-28,117.36493839190878,117.36493839190878,115.37636743353521,115.64086151123047,208600,0.36,0
2020-07-29,116.29719337305784,116.97311441863572,114.93556074044137,116.3853530883789,251200,0.0,0
2020-07-30,115.34697718169878,116.48330767803863,114.31840242117374,115.50371551513672,359800,0.0,0
2020-07-31,112.65310645509048,115.49392541695798,108.95024902131446,112.8490219116211,668100,0.0,0
2020-08-03,114.46534403272307,117.23759167872242,112.50615968479902,116.23841094970703,292900,0.0,0
2020-08-04,116.52248611683119,117.72738777937023,115.8073880150252,116.19922637939453,233100,0.0,0
2020-08-05,117.1200419615246,118.20738990997184,115.80739199057486,115.94453430175781,164700,0.0,0
2020-08-06,116.3951426234824,117.65881743355537,114.29881595447009,115.25881958007812,246500,0.0,0
2020-08-07,114.68086432993795,116.93392949287177,114.3967816807892,116.81637573242188,202300,0.0,0
2020-08-10,117.13963914313352,117.13963914313352,114.51433170171609,114.61228942871094,204700,0.0,0
2020-08-11,115.61147423724235,116.91433372546534,114.15188387509623,114.35759735107422,214100,0.0,0
2020-08-12,114.53391738034085,116.15024599308492,114.36738850126358,115.68003845214844,171800,0.0,0
2020-08-13,114.84738812586583,117.03188203342569,114.84738812586583,116.10126495361328,213800,0.0,0
2020-08-14,115.47433987218746,117.19842444624746,115.29801295582114,116.07189178466797,134600,0.0,0
2020-08-17,116.70862087342064,117.4727016379082,115.60168431380352,115.83678436279297,160500,0.0,0
2020-08-18,115.50371350028598,116.21881158146093,114.38697157825882,115.47431945800781,171500,0.0,0
2020-08-19,116.27759844017254,116.93393093532768,114.92576380995393,115.28821563720703,145600,0.0,0
2020-08-20,114.67106406728936,115.71922745457931,114.2204525382736,115.15106964111328,159400,0.0,0
2020-08-21,114.72984257298847,115.93473680861572,114.02453498447717,115.39596557617188,199200,0.0,0
2020-08-24,115.7878048012793,117.31597384408278,115.7878048012793,116.67923736572266,224000,0.0,0
2020-08-25,117.10045160141445,117.10045160141445,115.5233075734171,115.71922302246094,114400,0.0,0
2020-08-26,115.58208225090188,116.57147247123362,115.1608573035286,116.17963409423828,120000,0.0,0
2020-08-27,116.20902521341532,118.15841916000646,116.08168091222771,117.60005187988281,209800,0.0,0
2020-08-28,117.25718246591045,117.25718246591045,115.59187872795198,115.71922302246094,295200,0.0,0
2020-08-31,116.16004764351926,116.72821292677361,115.37637087532738,115.97392272949219,182500,0.0,0
2020-09-01,115.53310264808331,117.19840634366591,115.53310264808331,117.06126403808594,133900,0.0,0
2020-09-02,117.3061674380617,119.94127288107128,116.5420867081604,119.76494598388672,153800,0.0,0
2020-09-03,119.78454691446575,119.78454691446575,116.08168916474871,116.7380142211914,227200,0.0,0
2020-09-04,117.59024921718137,117.84494528318568,114.11269389900276,116.29718780517578,224200,0.0,0
2020-09-08,115.71923058685658,115.71923058685658,113.67188635784404,113.69147491455078,164600,0.0,0
2020-09-09,114.259640535161,116.20902703867485,114.259640535161,115.484130859375,154000,0.0,0
2020-09-10,115.75841234043831,116.4833159736719,114.32820857758962,114.79841613769531,253500,0.0,0
2020-09-11,115.47432675363382,116.28739007971517,114.73963259785572,115.94453430175781,124600,0.0,0
2020-09-14,116.93392394426255,117.60983748211345,116.05228946696202,116.64984130859375,129000,0.0,0
2020-09-15,117.00248610408576,117.35513986789312,115.70942479469042,115.9151382446289,125600,0.0,0
2020-09-16,117.13963647414144,117.13963647414144,115.17065406951717,115.36656951904297,232000,0.0,0
2020-09-17,114.12249418699479,114.84739034069801,112.7314750214926,113.59351348876953,354500,0.0,0
2020-09-18,114.20085646227737,114.36738533674684,111.89881636779708,112.6922836303711,555700,0.0,0
2020-09-21,111.2816830756186,111.71270607645273,109.53800998852937,111.1347427368164,251500,0.0,0
2020-09-22,111.64412659813124,112.32983816319928,111.24249020023743,111.99678039550781,292400,0.0,0
2020-09-23,111.86942852877947,112.1926957550498,109.43024599373942,109.85147094726562,172300,0.0,0
2020-09-24,109.61637086127307,110.86044969166292,108.89147471144815,109.96902465820312,274300,0.0,0
2020-09-25,109.18534795399343,110.28249393102065,109.18534795399343,109.81228637695312,254100,0.0,0
2020-09-28,110.86045341689203,111.88902827145039,109.7535168621459,110.06698608398438,230000,0.0,0
2020-09-29,109.77310902948241,111.03678397356111,109.46943781281483,110.32168579101562,230000,0.0,0
2020-09-30,110.95841033058268,111.73228910117047,110.2041275901694,110.88983917236328,200500,0.0,0
2020-10-01,111.13473299051925,112.62371733171287,110.8310617976699,111.37963104248047,166000,0.0,0
2020-10-02,110.01800110975854,111.84984127288719,110.01800110975854,110.54698181152344,166800,0.0,0
2020-10-05,111.04657835997284,112.58453789770869,110.89963802733398,112.21229553222656,151300,0.0,0
2020-10-06,112.66291269472309,113.53474924521326,111.59515319970379,112.22209167480469,224000,0.0,0
2020-10-07,112.74126267045874,113.7992240397687,112.16330686003843,112.63351440429688,173200,0.0,0
2020-10-08,113.43678967593577,114.40658394616437,113.1624975580293,114.14208984375,138000,0.0,0
2020-10-09,115.70944130136805,115.97392792510682,113.81882792657431,114.4261703491211,148700,0.0,0
2020-10-12,114.66127873876552,116.40495179187405,114.31841546367677,115.63107299804688,138100,0.0,0
2020-10-13,115.32738687006706,116.48330590363081,114.85717935061105,115.16085052490234,159000,0.0,0
2020-10-14,115.10208606669731,115.62126874848346,113.67188231964819,114.063720703125,98900,0.0,0
2020-10-15,112.37882460855063,114.21065734091758,111.88902848140297,113.96575927734375,116900,0.0,0
2020-10-16,114.3282168765706,114.8376090598027,113.81883216703464,113.9755630493164,97700,0.0,0
2020-10-19,114.25963918470204,114.25963918470204,112.2416815458307,112.800048828125,113700,0.0,0
2020-10-20,113.68168739685754,115.160866362674,112.86862400852918,114.57311248779297,192600,0.0,0
2020-10-21,114.87677157127366,116.33636929940468,114.87677157127366,115.3371810913086,133700,0.0,0
2020-10-22,115.48412664861965,116.06208994689692,114.36739211155026,115.89555358886719,164100,0.0,0
2020-10-23,116.32656888814739,116.54208035893139,115.08249013456945,115.93473052978516,105600,0.0,0
2020-10-26,114.95514861291741,115.09229092950895,113.56412941680573,115.06290435791016,114100,0.0,0
2020-10-27,115.1316923848515,115.15134866017239,113.59883276341355,113.63813781738281,125000,0.36,0
2020-10-28,112.12491691340904,112.61621879893036,110.29727329953599,110.38570404052734,170500,0.0,0
2020-10-29,110.3464073138769,111.13248583860009,108.42049731112613,110.97527313232422,279100,0.0,0
2020-10-30,114.22769831411038,114.72882837997606,111.56484276268966,112.10527038574219,377900,0.0,0
2020-11-02,113.16648894404962,116.23221579948066,112.67518699587191,116.13395690917969,215600,0.0,0
2020-11-03,116.43854495778434,119.34705117274105,116.27150411864949,117.4801025390625,242400,0.0,0
2020-11-04,117.91245928479668,117.93210806280834,116.04551051345294,116.97898864746094,150600,0.0,0
2020-11-05,118.51184361335382,120.95852494935667,118.33497463143361,120.77183532714844,185500,0.0,0
2020-11-06,121.4400009644198,122.44226104615582,120.33948949794525,121.4498291015625,220300,0.0,0
2020-11-09,125.39989691551386,126.61832350182986,119.98574799671464,121.02730560302734,336500,0.0,0
2020-11-10,121.24348631036324,126.55937664337672,120.81113822506418,125.39007568359375,326100,0.0,0
2020-11-11,125.52763525488069,125.52763525488069,122.20643711484507,123.09077453613281,194700,0.0,0
2020-11-12,122.07870026901554,123.03182720332731,120.45740241659558,122.1081771850586,126300,0.0,0
2020-11-13,122.6780825569878,123.80807842288024,121.94112970923257,122.89425659179688,126300,0.0,0
2020-11-16,124.08320233552939,124.79067824631457,123.38555456146952,124.65311431884766,207400,0.0,0
2020-11-17,124.06355416087962,125.87154899684685,123.51329095166952,125.14441680908203,191200,0.0,0
2020-11-18,125.21319606401647,125.63571597605147,123.7785954897439,124.17163848876953,173100,0.0,0
2020-11-19,124.49589157405138,125.39989271751159,123.8080719507713,125.01667785644531,213900,0.0,0
2020-11-20,125.29181697572527,126.12702873531292,124.97738404870384,125.58659362792969,237300,0.0,0
2020-11-23,125.83223583904176,126.87379343176893,124.20111748621753,124.65311431884766,182300,0.0,0
2020-11-24,125.93050033774301,126.23510510164512,124.67276123914712,125.65536499023438,237200,0.0,0
2020-11-25,126.24492226541157,126.24492226541157,123.5820670728872,124.09302520751953,136100,0.0,0
2020-11-27,124.34851299719917,125.08546584191586,123.88668801504251,125.02650451660156,67800,0.0,0
2020-11-30,124.5843301491664,124.72189407419755,123.50346752534811,124.12250518798828,204600,0.0,0
2020-12-01,124.93806993682993,126.34319361747242,124.22076589146485,125.5964126586914,165800,0.0,0
2020-12-02,125.14441549328326,125.8224144867263,123.53294592636011,124.06355285644531,133800,0.0,0
2020-12-03,123.87686139025095,124.8987702470002,122.97286768889774,123.68034362792969,138700,0.0,0
2020-12-04,123.297121795497,125.5767621946495,123.297121795497,125.45884704589844,144600,0.0,0
2020-12-07,125.76346823496661,126.74607960955187,125.41955837703173,126.39234161376953,115000,0.0,0
2020-12-08,126.0582288035551,128.62282519715924,125.71432648620686,126.94258117675781,162100,0.0,0
2020-12-09,126.88362922444317,127.91535118506839,126.42180425450802,127.27666473388672,144800,0.0,0
2020-12-10,127.21771359509621,128.80952693332657,126.77554488929266,128.2003173828125,247100,0.0,0
2020-12-11,127.33562418585855,128.8193655352391,127.33562418585855,128.1806640625,165800,0.0,0
2020-12-14,128.77022847189798,129.6938784247806,125.96980169929373,126.17615509033203,205800,0.0,0
2020-12-15,126.32354169335613,128.37718002987023,126.07789074420343,127.99396514892578,158200,0.0,0
2020-12-16,128.7112794354332,129.44823229846375,127.93501402343485,128.81936645507812,265400,0.0,0
2020-12-17,129.00602974506967,131.36428755835837,128.72108127671848,130.8238525390625,297700,0.0,0
2020-12-18,131.66889976739733,132.32724246703316,131.31516182500494,131.7671661376953,656300,0.0,0
2020-12-21,130.47014690773096,132.65152880307136,129.2124150933621,132.54344177246094,211700,0.0,0
2020-12-22,132.30758658891065,133.85028164580007,131.67872079982004,132.1602020263672,257300,0.0,0
2020-12-23,132.17986136688614,133.38845978782194,132.11107190720728,132.18968200683594,191600,0.0,0
2020-12-24,132.65152050969078,133.99768299402984,132.30760316288323,133.33934020996094,84200,0.0,0
2020-12-28,133.82080914672093,134.75427972474947,132.71046209446376,133.31967163085938,100400,0.0,0
2020-12-29,133.89942195313773,134.3710675717065,132.4942907443317,132.95611572265625,94400,0.0,0
2020-12-30,133.54568835040956,134.97046088621505,133.10351963148295,134.017333984375,99000,0.0,0
2020-12-31,134.39072881394412,134.93116391423393,133.25090478303187,134.50863647460938,169800,0.0,0
2021-01-04,133.55549689446428,135.56983753529016,131.35445914640604,131.6688995361328,315700,0.0,0
2021-01-05,131.7966423883825,132.9364513140636,131.21689479588423,131.37411499023438,260500,0.0,0
2021-01-06,131.8850751434345,135.56983916734953,131.8850751434345,135.32418823242188,289300,0.0,0
2021-01-07,135.12766081180519,137.56451371374138,134.13522150998853,137.2697296142578,192400,0.0,0
2021-01-08,137.14201293582963,138.17373488129945,135.36348754936245,136.6507110595703,140600,0.0,0
2021-01-11,137.07323515478288,137.43679377631955,135.97272365606997,136.37557983398438,115300,0.0,0
2021-01-12,136.39522618469368,136.80791796668348,134.70514650987255,135.7467041015625,199200,0.0,0
2021-01-13,135.55020523237832,137.15185438991986,133.77169456934772,136.16925048828125,245000,0.0,0
2021-01-14,136.09063819380577,138.2621993786634,135.12769058378416,137.02410888671875,181200,0.0,0
2021-01-15,136.62122487500773,138.871395958788,135.96288213244915,136.41488647460938,149300,0.0,0
2021-01-19,137.15182488217252,138.17372612294602,134.86235648472436,134.87217712402344,222300,0.0,0
2021-01-20,135.3340122924681,138.30147985952627,135.09819698471748,138.17373657226562,254100,0.0,0
2021-01-21,137.82984054649197,138.67488042233313,135.60914634144612,135.70741271972656,208300,0.0,0
2021-01-22,135.46174971472618,135.97270784830246,134.7247969232258,135.7860107421875,227800,0.0,0
2021-01-25,135.75653865414833,137.4859158687198,135.45193388843882,137.1420135498047,187100,0.0,0
2021-01-26,137.35872423804088,137.92026395670877,135.04364311232274,136.787353515625,125900,0.36,0
2021-01-27,135.48697241902087,135.48697241902087,131.17203308927424,131.2705535888672,186900,0.0,0
2021-01-28,132.08821189656422,133.78266209495288,131.62519265443962,133.24082946777344,165800,0.0,0
2021-01-29,132.43300818956902,133.34920066986143,129.86179469354684,130.9947052001953,377800,0.0,0
2021-02-01,132.1374824489648,132.39361469628616,129.85193920043318,132.0980682373047,184700,0.0,0
2021-02-02,133.04380813205708,136.06819484875658,132.73841564945826,134.90573120117188,193000,0.0,0
2021-02-03,134.1373201614385,135.26038463705785,133.37875445313344,134.5313720703125,134700,0.0,0
2021-02-04,134.09788961394054,136.34401829153015,132.99453237782353,135.94996643066406,251100,0.0,0
2021-02-05,137.3882792576368,138.63940213777886,136.65926680637827,138.57044982910156,177500,0.0,0
2021-02-08,139.15171331982273,139.89057197461827,138.44240780864962,139.87086486816406,171200,0.0,0
2021-02-09,139.85115719252582,140.7673346068502,139.12214465622455,140.0580291748047,183000,0.0,0
2021-02-10,140.87572304823846,141.95938846914922,140.39299662762937,141.12200927734375,151100,0.0,0
2021-02-11,141.36828645838781,142.17611245356642,139.94967546439827,140.84616088867188,195800,0.0,0
2021-02-12,140.26491538447095,142.6095496855045,140.26491538447095,142.4814910888672,105300,0.0,0
2021-02-16,142.4617723283223,142.5701388440663,140.77716831668653,141.46678161621094,175300,0.0,0
2021-02-17,141.61456741212504,142.0381724679243,140.33387614388766,141.0825958251953,200700,0.0,0
2021-02-18,140.50136006286343,141.0530387987213,138.8955841064453,138.8955841064453,208700,0.0,0
2021-02-19,136.5115110957101,136.5115110957101,129.65489722887773,130.27554321289062,492900,0.0,0
2021-02-22,129.3002450861619,129.41845764282084,125.60595236941442,127.18218994140625,347100,0.0,0
2021-02-23,125.9212162832873,126.80784816457398,124.89666472225143,126.37438201904297,490700,0.0,0
2021-02-24,126.35467184240075,127.12308361549088,125.90151363371544,126.84724426269531,213000,0.0,0
2021-02-25,126.85709435096011,128.9653035260505,126.85709435096011,128.36436462402344,378600,0.0,0
2021-02-26,129.1130705625344,129.6155040134986,127.63535341427018,128.13778686523438,386500,0.0,0
2021-03-01,128.83723095136642,130.03910876525092,127.95060667717708,128.659912109375,283000,0.0,0
2021-03-02,128.50227941202323,128.71901245253724,127.5466878330612,128.4136199951172,367700,0.0,0
2021-03-03,128.43330426501748,130.21641369102346,127.57623322275515,129.10321044921875,220400,0.0,0
2021-03-04,128.94560172774027,129.94059255998846,128.19689709445498,128.46287536621094,493600,0.0,0
2021-03-05,129.19189396024103,132.14732848582116,128.47274243467606,132.0980682373047,204700,0.0,0
2021-03-08,132.8270846051908,136.42285736728164,132.1079330591962,135.664306640625,230600,0.0,0
2021-03-09,136.61989140212725,138.5803352204459,135.6347464741092,135.6446075439453,251500,0.0,0
2021-03-10,136.15687634778055,138.0384915870806,135.89088302925808,137.3094940185547,150700,0.0,0
2021-03-11,137.12231409189508,138.334038048537,136.67900191576925,137.3094940185547,169100,0.0,0
2021-03-12,137.92026732851315,139.14185225069895,137.19125478964347,138.6788330078125,219000,0.0,0
2021-03-15,139.67383952028467,140.90527061707948,138.91527375566605,140.01864624023438,356200,0.0,0
2021-03-16,139.60488898678787,139.98909489263275,137.26023933812942,138.41285705566406,280700,0.0,0
2021-03-17,137.83161556032547,139.63443238721783,137.30949000758866,139.18125915527344,180900,0.0,0
2021-03-18,139.24034885944272,140.3535671852699,138.84629699067807,139.40782165527344,174100,0.0,0
2021-03-19,139.94967258297712,140.21566589690298,136.9745309780663,137.2405242919922,615000,0.0,0
2021-03-22,136.9055889714842,139.7526571523263,136.2061294731618,139.48666381835938,247700,0.0,0
2021-03-23,138.44239285225893,140.4422355259531,138.07789409888218,138.6788330078125,330100,0.0,0
2021-03-24,139.06304939720098,142.18595674007892,139.06304939720098,139.73294067382812,300800,0.0,0
2021-03-25,139.2994796844614,141.10229661438396,138.3635950571336,140.3535919189453,265600,0.0,0
2021-03-26,140.87571505155873,142.66868591308594,140.07775011969224,142.66868591308594,286800,0.0,0
2021-03-29,142.09727454478272,143.73260329481485,141.25989555104908,142.61940002441406,272200,0.0,0
2021-03-30,142.18594449530676,142.26475787967283,140.48164827572438,140.9545135498047,247900,0.0,0
2021-03-31,140.9052731222854,141.3387392812028,139.1320093049498,139.5654754638672,408600,0.0,0
2021-04-01,139.88069582750987,141.84112408235438,139.2797569830129,141.73275756835938,228200,0.0,0
2021-04-05,142.79672058814222,142.79672058814222,141.21063702730433,142.54058837890625,196100,0.0,0
2021-04-06,141.90023759757514,143.82128181024902,141.19094723500498,143.80157470703125,206100,0.0,0
2021-04-07,143.12183683174067,143.33856989256682,141.25006770509685,141.45693969726562,188000,0.0,0
2021-04-08,141.66380558435978,141.82143233819016,140.07772207521373,141.5455780029297,158700,0.0,0
2021-04-09,142.2746028248347,143.1415350140984,141.15153841243213,143.0430145263672,151400,0.0,0
2021-04-12,142.53073955935048,144.2054977110949,142.53073955935048,144.03802490234375,100800,0.0,0
2021-04-13,144.42222803578457,144.82612596355509,143.27945650483926,144.15623474121094,160800,0.0,0
2021-04-14,142.35342933990694,143.9789123126022,142.35342933990694,143.6439666748047,185100,0.0,0
2021-04-15,144.73748156359898,145.702919320983,143.86070323623522,145.01332092285156,184800,0.0,0
2021-04-16,146.92450014377656,147.36781231326353,145.3778305689679,145.8802490234375,322600,0.0,0
2021-04-19,146.0279979374914,147.56482129871947,145.5551326799094,147.48602294921875,203900,0.0,0
2021-04-20,144.81629227246097,148.5105854426768,144.4911926696279,148.18548583984375,190300,0.0,0
2021-04-21,147.91948944988792,150.0966661271073,147.91948944988792,149.6829071044922,191200,0.0,0
2021-04-22,149.76172773727794,149.76172773727794,147.71262459847554,147.8406982421875,278400,0.0,0
2021-04-23,148.05742359617517,149.4858957576405,147.60426535039988,149.2001953125,188100,0.0,0
2021-04-26,149.49571147340234,149.91931648819158,148.6583324473608,148.67803955078125,193600,0.0,0
2021-04-27,148.2435040923501,149.7940778146188,147.6311622737562,149.7644500732422,214900,0.38,0
2021-04-28,149.5570483995613,151.1767787173029,149.1817586330678,149.25088500976562,192000,0.0,0
2021-04-29,149.56693263945587,150.26814263961646,148.53978733124728,149.05335998535156,226400,0.0,0
2021-04-30,148.14472305514937,150.06073055120567,146.07069090435306,148.9447021484375,365700,0.0,0
2021-05-03,150.27801782852552,151.30514799304675,149.86321439265765,150.57431030273438,212900,0.0,0
2021-05-04,150.99897081782706,154.2087730097104,150.99897081782706,153.10263061523438,206800,0.0,0
2021-05-05,153.37918309900547,153.37918309900547,151.49280321714025,152.2730255126953,186400,0.0,0
2021-05-06,152.2236524342856,154.69273125754953,151.73970755970387,154.58409118652344,240600,0.0,0
2021-05-07,153.62608736521156,155.97664015682327,153.62608736521156,155.61122131347656,187100,0.0,0
2021-05-10,155.7889872189968,157.0037696584795,153.4680473300919,153.5569305419922,226300,0.0,0
2021-05-11,152.63845944174355,153.73473106774097,151.818723444821,152.08538818359375,299700,0.0,0
2021-05-12,151.71008057330945,152.63845662667975,149.7348175048828,149.7348175048828,164100,0.0,0
2021-05-13,149.52742081228644,153.3693072002951,149.46816532646594,152.7075958251953,308900,0.0,0
2021-05-14,153.05325102272096,153.36928525857115,151.28538224166203,151.64093017578125,174000,0.0,0
2021-05-17,151.2162628173828,152.18413748856506,150.3471422562863,151.2162628173828,136800,0.0,0
2021-05-18,151.51256810648218,152.09526713648884,148.9941045002746,149.05335998535156,172500,0.0,0
2021-05-19,148.1447468754123,149.17187715625414,146.76206859926697,147.6904296875,161400,0.0,0
2021-05-20,147.4237666747027,148.74718934374454,147.1966005662382,147.88795471191406,123200,0.0,0
2021-05-21,148.07558953970224,148.71755908265723,147.03858847888344,147.77931213378906,134900,0.0,0
2021-05-24,148.60892019815677,148.86569897535415,147.1176019862502,147.41387939453125,143000,0.0,0
2021-05-25,147.78918135028337,148.26324026443717,145.64602274143465,145.90280151367188,199200,0.0,0
2021-05-26,146.66328782424796,147.54227931682314,145.3497360306133,146.0312042236328,113600,0.0,0
2021-05-27,146.7818061047939,147.30524965622985,144.6682750470915,144.95469665527344,172600,0.0,0
2021-05-28,145.4682344837331,145.67564372596618,144.60899991603998,145.4879913330078,146900,0.0,0
2021-06-01,146.1497096157658,146.96944559421888,144.79665924184485,145.06332397460938,173000,0.0,0
2021-06-02,145.0336976397972,146.06082781030656,143.3250842255916,143.85841369628906,282800,0.0,0
2021-06-03,143.68063586877037,144.31271946762152,142.94979815544787,143.60162353515625,224500,0.0,0
2021-06-04,144.23370247098427,144.45098261388304,142.98929216443227,143.7596435546875,151900,0.0,0
2021-06-07,143.73002894474203,144.28310024262424,140.2733182629155,140.75726318359375,184800,0.0,0
2021-06-08,140.76711495484008,141.14241974316818,139.37455093820637,141.01402282714844,182900,0.0,0
2021-06-09,140.8066216767484,141.43870519573596,139.88811660084122,140.41156005859375,174100,0.0,0
2021-06-10,140.6288680273321,143.2559717955353,140.47084334877937,143.19671630859375,216100,0.0,0
2021-06-11,143.46334895316522,144.44110958170955,142.4559756547316,144.02630615234375,152900,0.0,0
2021-06-14,144.19420548863374,144.19420548863374,141.30045229704612,141.7152557373047,223600,0.0,0
2021-06-15,141.76462349023163,143.11768893688293,141.5967279381779,142.54486083984375,214200,0.0,0
2021-06-16,142.66337030080203,143.39422305210888,140.67823636733397,140.8560028076172,168400,0.0,0
2021-06-17,140.99427454396914,141.82389649857564,138.23878915242267,139.75973510742188,157900,0.0,0
2021-06-18,139.0091266560033,140.144896796039,138.17951985440885,138.36717224121094,280400,0.0,0
2021-06-21,139.2362877394926,140.44119940182975,138.43630861795393,139.82887268066406,229800,0.0,0
2021-06-22,140.1350288794223,140.89550933204583,139.41406212489002,139.8782501220703,207400,0.0,0
2021-06-23,139.64123687880164,140.40171746068557,138.3671986949234,138.4363250732422,227600,0.0,0
2021-06-24,139.18690590708624,139.18690590708624,138.06100655260198,138.44618225097656,142300,0.0,0
2021-06-25,138.44619489681824,139.7400049931862,138.3770685190325,139.1770477294922,635000,0.0,0
2021-06-28,139.33505384238282,139.67084493560193,138.0017452892248,138.96963500976562,218600,0.0,0
2021-06-29,139.0683805911432,140.21403667782994,138.32765701148435,138.54493713378906,151900,0.0,0
2021-06-30,138.5844497081874,140.16465095662545,138.5548069007861,139.09800720214844,186500,0.0,0
2021-07-01,139.36468660498227,139.9473855942287,139.157277351659,139.3745574951172,225500,0.0,0
2021-07-02,139.7300976918341,140.18441480385425,138.32766279742637,138.67333984375,121900,0.0,0
2021-07-06,138.66345678329503,139.1276447946073,136.9252307658679,138.3177947998047,273400,0.0,0
2021-07-07,138.09066291898964,139.71037820321322,138.09066291898964,139.27581787109375,219900,0.0,0
2021-07-08,138.20915085423144,138.86099124375133,137.29064574716972,137.5474395751953,154200,0.0,0
2021-07-09,138.12027074500713,139.53257655067213,138.0313724571201,139.43380737304688,229800,0.0,0
2021-07-12,139.07828922131483,139.26592656656464,138.31780866928358,138.6832275390625,174300,0.0,0
2021-07-13,138.47581320931457,139.46344466626118,136.64868898593926,136.78695678710938,223600,0.0,0
2021-07-14,136.9548732181003,137.42893217013298,136.30303274026642,136.72772216796875,179900,0.0,0
2021-07-15,136.04625796802614,137.2906684051608,135.62158359783595,136.8462371826172,155500,0.0,0
2021-07-16,137.2906694974765,138.6141073545544,136.68821359143791,137.32029724121094,177700,0.0,0
2021-07-19,136.3326474080509,137.2116388517176,134.6931905499053,135.4339141845703,293000,0.0,0
2021-07-20,135.6018072193218,137.92273218953943,135.30551475693682,135.3252716064453,294000,0.0,0
2021-07-21,135.60180468608647,136.303014594902,134.24873931615306,134.37713623046875,158000,0.0,0
2021-07-22,134.64380541769393,135.04873795316038,132.9944626062266,133.00433349609375,203600,0.0,0
2021-07-23,133.3104910895713,134.5944150096579,132.62902296667593,134.55491638183594,175200,0.0,0
2021-07-26,135.0684750685952,135.4339089619127,134.2191113974637,135.0289764404297,191000,0.0,0
2021-07-27,134.42652698440853,136.54005783746265,133.71543108337528,135.0684814453125,150500,0.0,0
2021-07-28,134.83146582433426,136.11538987618817,134.54504423050423,135.94747924804688,165100,0.0,0
2021-07-29,137.00426468126633,138.27830288812314,137.00426468126633,137.33018493652344,316000,0.0,0
2021-07-30,134.31787968636397,137.78446071481238,126.5945943707691,127.32544708251953,842400,0.0,0
2021-08-02,126.85138793646738,128.96491867144178,126.11066433677925,128.30320739746094,453600,0.0,0
2021-08-03,128.32302798069497,128.51123089872374,126.46082872559649,127.4117431640625,418300,0.38,0
2021-08-04,127.5405016834119,128.17443960446786,125.12361619331215,125.56935119628906,294500,0.0,0
2021-08-05,126.23300537669336,126.98580189921216,125.44057923420057,126.29243469238281,158000,0.0,0
2021-08-06,126.86694699042376,128.23388174847628,126.70845873442046,127.213623046875,184600,0.0,0
2021-08-09,127.48107241911728,129.50175993440442,127.40182828966756,128.84800720214844,297200,0.0,0
2021-08-10,128.08530003997583,129.9673141713397,127.73862396539208,127.9763412475586,200400,0.0,0
2021-08-11,128.9569671840798,131.06679869666775,127.94662341708765,130.38333129882812,305900,0.0,0
2021-08-12,131.28468167387175,132.33465490723304,130.6606588020039,131.42335510253906,247800,0.0,0
2021-08-13,131.63138296674262,132.62191185207118,131.25497715375093,131.7898712158203,174300,0.0,0
2021-08-16,131.33421339622944,131.90872192895327,130.41302884300924,131.62147521972656,106300,0.0,0
2021-08-17,131.07669174044494,131.87901773477128,130.35360987218775,131.750244140625,213100,0.0,0
2021-08-18,131.0271643434581,131.83940531280157,130.78943196149302,130.79934692382812,110800,0.0,0
2021-08-19,130.19511536512525,131.69080849785968,130.15548574685877,131.1559295654297,94000,0.0,0
2021-08-20,130.84886771059624,132.64172251875837,130.68046450479164,132.2554168701172,118600,0.0,0
2021-08-23,132.89926087672532,133.27566669579477,131.23517957735388,131.7007293701172,111200,0.0,0
2021-08-24,131.69081440797015,132.4535258939845,130.9677325420008,131.7007293701172,85700,0.0,0
2021-08-25,131.81959126322678,133.22614052419337,131.6809178181814,132.85964965820312,116000,0.0,0
2021-08-26,132.3346640158088,132.51295195882255,131.22526139584008,131.403564453125,133600,0.0,0
2021-08-27,132.08704246060012,133.67187972322398,132.03751298989604,133.255859375,180600,0.0,0
2021-08-30,133.87990483739804,134.9397630204047,133.72141656811397,133.94923400878906,122300,0.0,0
2021-08-31,134.2760967018119,134.6624023723726,132.9487915890414,133.52330017089844,154100,0.0,0
2021-09-01,133.8303669240222,134.21667260961922,132.86955263420637,133.73130798339844,135800,0.0,0
2021-09-02,134.21666791809665,134.92984994569616,132.95869196465418,133.86007690429688,165500,0.0,0
2021-09-03,133.99875345684146,134.90013841739838,133.65206228300508,133.86997985839844,112700,0.0,0
2021-09-07,133.44404044383208,133.44404044383208,129.68992784757046,129.83851623535156,131600,0.0,0
2021-09-08,129.10553256836113,130.10597642561137,129.10553256836113,129.6404266357422,325200,0.0,0
2021-09-09,129.17488347884938,129.87815056653633,127.15419596496118,127.4117431640625,227700,0.0,0
2021-09-10,127.05515611539708,128.07539975259425,124.6283555873963,124.64816284179688,341000,0.0,0
2021-09-13,124.2717669325555,124.92551969734761,122.58787066219314,123.57839965820312,286000,0.0,0
2021-09-14,123.94487944331793,125.22266264052358,123.0435020674333,123.40009307861328,184100,0.0,0
2021-09-15,122.72652602065094,124.24203395193794,122.13221022210598,123.4496078491211,206600,0.0,0
2021-09-16,123.29113911428101,124.13308720693001,120.88415347328352,121.14169311523438,176800,0.0,0
2021-09-17,121.04263965887093,121.47847483312806,119.57666098441109,120.08183288574219,568400,0.0,0
2021-09-20,118.62573957842855,120.72565594610657,118.40782201790297,120.70584869384766,289200,0.0,0
2021-09-21,120.80491151079372,121.16150254231079,118.69508753859797,118.92290496826172,240600,0.0,0
2021-09-22,119.23986711414447,120.06200792073639,118.30877508033834,119.14081573486328,235000,0.0,0
2021-09-23,119.69550358166231,120.50774450012912,119.14080983942688,119.86389923095703,162100,0.0,0
2021-09-24,119.5172239568077,120.26012065204254,119.13091072272049,119.22006225585938,186300,0.0,0
2021-09-27,119.041764915971,119.98276435927576,118.65545924496077,119.19034576416016,206600,0.0,0
2021-09-28,119.2299645977495,119.72522904020686,117.75407111808896,118.89318084716797,230800,0.0,0
2021-09-29,118.86346989662543,120.14125310487047,118.86346989662543,119.2398681640625,237600,0.0,0
2021-09-30,119.64599147108186,120.27992938758973,118.17010546769345,118.2196273803711,314900,0.0,0
2021-10-01,118.70497922432173,121.16149421061243,117.48663291469852,120.42850494384766,259800,0.0,0
2021-10-04,120.34926377809435,121.4883735475035,119.84409191290429,121.13178253173828,241900,0.0,0
2021-10-05,120.72566912140977,121.70629825079507,119.47760805023343,120.50775909423828,249200,0.0,0
2021-10-06,119.92333998427114,122.07278599761577,119.30920931311432,121.93411254882812,240900,0.0,0
2021-10-07,122.1124081832039,124.84627021097096,122.06288626980863,123.0831298828125,252700,0.0,0
2021-10-08,123.40999371077339,123.90525816754439,122.58786045595679,123.33075714111328,217900,0.0,0
2021-10-11,123.29113874164113,125.01465698642512,123.09302841876382,123.39019012451172,182800,0.0,0
2021-10-12,122.94445273828956,124.02412563776822,122.67700569687685,123.31094360351562,99800,0.0,0
2021-10-13,124.00432619184606,126.36178245826535,123.57839842552488,126.18348693847656,266400,0.0,0
2021-10-14,126.30234289670786,127.14429095522505,125.6783048494763,126.79759979248047,215400,0.0,0
2021-10-15,127.39192854874244,128.02586647060238,126.50045098452185,127.00562286376953,193200,0.0,0
2021-10-18,126.43111001072708,127.47116839354746,125.70802813531823,126.60940551757812,221100,0.0,0
2021-10-19,126.92637314758501,127.33249362562971,125.96555890161176,126.34196472167969,143300,0.0,0
2021-10-20,126.0547123418867,127.54049816317945,125.72783598491976,126.9461898803711,180000,0.0,0
2021-10-21,126.82732122344872,128.33292947269015,126.09433946713479,127.84757995605469,139700,0.0,0
2021-10-22,127.39192370227829,128.5607405610683,126.47073151381862,126.55987548828125,131600,0.0,0
2021-10-25,126.74808476469425,127.65937715095794,125.50992356518317,126.57969665527344,216400,0.0,0
2021-10-26,126.75851502662572,127.44402084485442,125.68555895507552,126.06307983398438,188500,0.38,0
2021-10-27,125.67562160662557,126.37105679708468,124.46357092067531,124.50331115722656,202200,0.0,0
2021-10-28,124.28474180896569,125.51665880514493,124.28474180896569,125.15901184082031,218700,0.0,0
2021-10-29,122.6156920174035,124.612595327619,119.11863456567909,119.9928970336914,696400,0.0,0
2021-11-01,119.19811037367009,124.85102428141577,119.19811037367009,124.36421966552734,581800,0.0,0
2021-11-02,125.03979058483503,127.27512768519684,123.68865288668678,126.56975555419922,275500,0.0,0
2021-11-03,126.65916668245004,127.6625868021926,125.34776920681296,127.563232421875,290000,0.0,0
2021-11-04,127.6824541045705,128.93423737132193,127.52349316802606,127.7122573852539,326300,0.0,0
2021-11-05,128.6560695633689,130.80199683294012,128.28848564417984,130.64303588867188,335700,0.0,0
2021-11-08,131.09009572627446,131.40801760376718,128.22887462558734,129.78863525390625,255000,0.0,0
2021-11-09,129.37138049092397,130.61323446187865,128.904442185097,129.51046752929688,170700,0.0,0
2021-11-10,129.80851356063707,130.22577466947624,128.32821819217077,128.7355499267578,147000,0.0,0
2021-11-11,128.924310673724,129.64954911765696,127.89107972408696,128.98391723632812,131800,0.0,0
2021-11-12,129.57999756375912,130.76224491572822,128.66599490191024,130.6331024169922,177500,0.0,0
2021-11-15,131.55704185985113,132.13326392768033,129.94760394721285,131.45770263671875,190800,0.0,0
2021-11-16,131.39806593816914,134.92493388349834,131.13976579623903,133.36517333984375,402900,0.0,0
2021-11-17,133.61355457801366,134.31891912674087,131.74580140114753,133.5738067626953,267100,0.0,0
2021-11-18,133.26582478595074,133.26582478595074,128.6659931005586,128.79515075683594,258800,0.0,0
2021-11-19,128.82496640883005,130.66291641659527,128.6362021728665,129.3018341064453,212800,0.0,0
2021-11-22,129.64955064170434,130.6331044142832,127.9506877907681,127.96063232421875,274500,0.0,0
2021-11-23,127.9606380375095,129.81844675375763,127.66259004832814,128.85476684570312,155800,0.0,0
2021-11-24,128.49710964345053,129.23229264703934,126.87773480410229,127.34466552734375,220400,0.0,0
2021-11-26,125.6855576791367,128.24873849147605,125.51665978005975,125.78490447998047,167000,0.0,0
2021-11-29,127.21552199100894,127.46389278163592,124.68213689474375,125.04972839355469,228100,0.0,0
2021-11-30,123.87741617677986,124.62252853794325,118.54240894216704,118.8106460571289,593800,0.0,0
2021-12-01,119.88361211117632,121.63214460986161,115.90967943759388,116.02890014648438,786000,0.0,0
2021-12-02,116.55544455363511,119.91341492089532,116.17792367981563,118.8702621459961,578300,0.0,0
2021-12-03,118.86032482967991,119.92335150924599,116.86342155285345,118.02580261230469,368300,0.0,0
2021-12-06,119.4464832795608,120.4300294825039,118.05560534407739,119.4365463256836,615400,0.0,0
2021-12-07,120.41015748480768,120.94663930756181,118.9894762448315,119.49615478515625,377900,0.0,0
2021-12-08,119.81407103555311,120.47970295282822,118.68150080686331,120.03263854980469,210100,0.0,0
2021-12-09,119.4365510579134,120.2214036924593,118.45300481600094,118.75104522705078,193600,0.0,0
2021-12-10,119.29745923510195,120.18165863789037,118.71130023141724,118.95967102050781,168900,0.0,0
2021-12-13,118.69143992640939,119.83394713013813,117.49925553047164,117.83704376220703,217900,0.0,0
2021-12-14,117.23101128785098,118.52254241018031,116.02889759013823,116.18785095214844,292600,0.0,0
2021-12-15,116.42629188369939,118.29403746273402,116.42629188369939,117.59860229492188,309800,0.0,0
2021-12-16,118.46293035745437,119.40674391109447,117.4893211013162,117.91651916503906,242600,0.0,0
2021-12-17,117.91652157297885,117.97612813854228,114.91619811170057,115.134765625,800100,0.0,0
2021-12-20,114.07173689393436,115.21424405154059,111.63770616746133,112.92922973632812,291900,0.0,0
2021-12-21,113.48558683067785,115.13476496578298,112.96897133316892,114.63802337646484,301800,0.0,0
2021-12-22,114.30024273397258,115.52222279907711,113.66441410601938,114.63802337646484,379800,0.0,0
2021-12-23,114.91619688118543,115.80039629939233,114.37971505783375,115.5718994140625,223800,0.0,0
2021-12-27,115.87987569930628,119.2477830205408,115.84013546316584,119.10869598388672,352200,0.0,0
2021-12-28,119.5855710362642,121.30429266330952,119.27758610161372,120.64859771728516,438700,0.0,0
2021-12-29,120.65852520979328,122.6951686936633,120.65852520979328,121.30429077148438,953000,0.0,0
2021-12-30,121.70168616007894,122.69516931240611,120.81748676088175,121.08572387695312,237200,0.0,0
2021-12-31,120.81748305636883,122.07920328608044,120.43996219874305,121.68181610107422,226400,0.0,0
2022-01-03,121.64208404410476,122.19843220425409,118.51261048391444,120.03263854980469,234900,0.0,0
2022-01-04,120.21146076132156,122.11894658403213,119.17823737910129,120.58898162841797,337300,0.0,0
2022-01-05,120.4498947264894,123.33099737127225,120.4498947264894,122.2580337524414,367600,0.0,0
2022-01-06,122.73491187879355,123.1919132279815,121.21488383961567,121.7513656616211,231900,0.0,0
2022-01-07,121.92025760185702,122.98328430597401,121.17514521355982,122.8740005493164,335100,0.0,0
2022-01-10,122.14875219853145,123.08262879984346,120.8870319130711,121.25462341308594,398400,0.0,0
2022-01-11,121.48311615844108,122.17855889859001,119.9432218517698,121.72154998779297,135500,0.0,0
2022-01-12,121.5228633726816,122.19843224437409,119.83394498328798,120.50951385498047,206600,0.0,0
2022-01-13,120.8770980834961,121.53280062809121,119.58557448242802,120.8770980834961,193200,0.0,0
2022-01-14,120.4896437421275,120.69827430882407,119.08883634297187,120.39029693603516,179000,0.0,0
2022-01-18,119.82400512633222,120.60885773617319,118.05560630553802,119.5855712890625,232500,0.0,0
2022-01-19,119.97302820212093,121.10559839510918,119.71472045890475,120.62872314453125,252600,0.0,0
2022-01-20,120.03264010547066,121.51292795343885,118.03573674808955,118.05561065673828,297700,0.0,0
2022-01-21,118.44306287219446,119.28752203744156,115.07515558538338,115.62156677246094,351800,0.0,0
2022-01-24,114.83671579639196,116.48590149416965,113.2868844791937,116.267333984375,329300,0.0,0
2022-01-25,113.97238897720584,116.17792279836647,112.3629435342758,115.27384948730469,470000,0.0,0
2022-01-26,115.02548249840558,116.78395198891022,113.66441537941775,114.4393310546875,1542500,0.0,0
2022-01-27,115.02548697014902,117.52906895030799,111.93575352348468,112.90937042236328,263900,0.0,0
2022-01-28,113.08818890592944,114.34990917273706,111.71717730645472,114.30023956298828,323100,0.0,0
2022-01-31,114.26049855652649,116.57530852236022,113.48558291666436,116.53557586669922,486300,0.0,0
2022-02-01,116.32694345585479,118.15495647281023,115.69111481856818,116.71440887451172,214000,0.0,0
2022-02-02,116.3157155910426,116.6346615590438,115.62799286257635,116.2359848022461,363600,0.38,0
2022-02-03,116.05657569277348,116.99347518404538,114.53161506570142,114.8106918334961,167700,0.0,0
2022-02-04,114.30237070259723,115.64792376874912,113.28573280496096,114.88046264648438,242700,0.0,0
2022-02-07,115.23927444884738,115.64792039431171,113.95352141293411,114.36216735839844,263300,0.0,0
2022-02-08,114.62131644229476,116.05657709893913,114.36217046722915,115.66786193847656,204200,0.0,0
2022-02-09,116.694467528492,117.27255946376668,115.81736042551758,116.16621398925781,295900,0.0,0
2022-02-10,115.13959682618636,116.86390339486421,113.28572868084147,114.23259735107422,267100,0.0,0
2022-02-11,114.66118593039718,116.05657739409781,112.49833334401062,113.33556365966797,230600,0.0,0
2022-02-14,113.33555853775646,114.13292722505655,112.06974392125927,113.72427368164062,266600,0.0,0
2022-02-15,114.28243480445924,115.74758779064577,113.02658178345656,113.72427368164062,263000,0.0,0
2022-02-16,113.87378100963166,114.70104969013157,112.72756637577015,114.32229614257812,271400,0.0,0
2022-02-17,113.58474083700438,115.87717022149904,112.94684889778827,115.22930908203125,362400,0.0,0
2022-02-18,115.89709687192267,121.11983978903123,114.04322111355681,118.04998779296875,462300,0.0,0
2022-02-22,118.10978673247634,119.78425489918357,116.93367209628589,118.70780944824219,437200,0.0,0
2022-02-23,119.34570468631846,119.91382742277598,117.21275212458167,117.30245971679688,321100,0.0,0
2022-02-24,115.88713048774588,116.95360677428611,114.34223905441897,116.48516082763672,349300,0.0,0
2022-02-25,116.77420377643955,121.19957798895224,116.43531941898374,120.5716552734375,260100,0.0,0
2022-02-28,119.07659290916897,121.62816053299443,118.8872161356199,121.47865295410156,316300,0.0,0
2022-03-01,121.55839225113988,122.53516851683217,118.13968672762392,118.70780944824219,325700,0.0,0
2022-03-02,118.69784208098496,119.66464916179724,117.61143501773586,117.99018096923828,435100,0.0,0
2022-03-03,118.48853474725685,119.35567264303629,117.02338172954002,118.93705749511719,196100,0.0,0
2022-03-04,117.66127503548985,119.99356597642166,117.30245987468932,119.79422760009766,206700,0.0,0
2022-03-07,118.91712045587151,119.95369674182145,116.06653757057713,116.13630676269531,337300,0.0,0
2022-03-08,116.57485968261756,117.90048192993689,109.67764848337546,109.82715606689453,382800,0.0,0
2022-03-09,110.81389659707443,114.00335630169863,110.81389659707443,112.89701080322266,224800,0.0,0
2022-03-10,111.46175834934337,113.28573419242728,111.07304318334475,111.89034271240234,223200,0.0,0
2022-03-11,112.92691336256027,113.34552850430264,111.87039870409964,111.93020629882812,237100,0.0,0
2022-03-14,112.44849194368587,115.5283207609267,112.39865354820671,114.14289093017578,173800,0.0,0
2022-03-15,114.71101657395243,116.5449615935327,113.71430947321386,116.42535400390625,199500,0.0,0
2022-03-16,117.33235873093942,118.71778096446667,113.98342233218061,116.6047592163086,266800,0.0,0
2022-03-17,116.85393514083002,118.11975738227335,114.89042098980718,118.02008819580078,163300,0.0,0
2022-03-18,117.7111024429642,118.43870194374276,115.88712669538371,117.35228729248047,286800,0.0,0
2022-03-21,117.34232634470332,118.27922581678604,116.28581168277051,118.2692642211914,309100,0.0,0
2022-03-22,119.38557672471171,120.06333786541747,116.97354733736279,117.28252410888672,294100,0.0,0
2022-03-23,117.41209450449111,117.71110205940565,113.66447383624535,114.29239654541016,256800,0.0,0
2022-03-24,114.62131399315273,115.83729784524178,113.62460691495139,115.46851348876953,210100,0.0,0
2022-03-25,116.4652200911306,116.87387364157385,115.61802059897516,116.85393524169922,148000,0.0,0
2022-03-28,117.04331426656566,117.18285265128138,114.63128492588366,116.10640716552734,167300,0.0,0
2022-03-29,117.12304853454715,119.19619343629087,117.12304853454715,118.92708587646484,184700,0.0,0
2022-03-30,119.17626412864094,119.17626412864094,117.85064189970477,118.4287338256836,156600,0.0,0
2022-03-31,118.01012078614687,119.43541222671442,117.08318288977397,117.11308288574219,211200,0.0,0
2022-04-01,117.76094434340601,119.24603578006355,116.90377563665214,118.6280746459961,400800,0.0,0
2022-04-04,118.3290649551472,118.3290649551472,114.82065179884923,118.02008819580078,286300,0.0,0
2022-04-05,117.26259253911377,118.81745319107179,117.20278494185033,117.34233093261719,225300,0.0,0
2022-04-06,116.87387190856633,118.52840167286605,115.96686483450765,117.95030975341797,194300,0.0,0
2022-04-07,117.52173660153251,120.20287350203385,116.24594513907455,119.60485076904297,331900,0.0,0
2022-04-08,119.41547074617961,121.82750761710857,119.41547074617961,121.01020812988281,305300,0.0,0
2022-04-11,120.73112802904127,121.89728111281097,118.56827545166017,118.56827545166016,208000,0.0,0
2022-04-12,118.83738570659699,119.79422356843894,116.01670291133928,116.62469482421875,187400,0.0,0
2022-04-13,116.50509102950382,117.61143650667957,116.50509102950382,117.49182891845703,120200,0.0,0
2022-04-14,117.03334327126603,118.30912711439568,116.5748589279083,117.01341247558594,163300,0.0,0
2022-04-18,116.39545012111725,117.1529496215817,113.20599054695872,113.63457489013672,137100,0.0,0
2022-04-19,114.19272683951941,117.25261719024189,113.13621979595239,116.8439712524414,221600,0.0,0
2022-04-20,117.59150726872906,119.35567549382293,116.94364613141556,119.10649871826172,141200,0.0,0
2022-04-21,119.85402365561269,119.95369284050113,117.95030952587662,118.54833984375,178200,0.0,0
2022-04-22,118.20946060291861,118.20946060291861,116.04660801977697,116.2359848022461,179900,0.0,0
2022-04-25,116.1163728920079,116.1163728920079,111.81059868207169,115.0199966430664,379600,0.0,0
2022-04-26,114.37000274658203,115.3499984741211,110.44000244140625,110.58000183105469,295300,0.38,0
2022-04-27,110.94000244140625,112.98999786376953,110.56999969482422,111.0999984741211,231500,0.0,0
2022-04-28,111.18000030517578,112.23999786376953,109.55000305175781,112.0999984741211,289200,0.0,0
2022-04-29,112.5199966430664,116.44999694824219,112.5199966430664,114.83000183105469,640200,0.0,0
2022-05-02,115.41999816894531,116.97000122070312,112.06999969482422,113.38999938964844,457000,0.0,0
2022-05-03,112.98999786376953,115.37000274658203,112.63999938964844,113.83000183105469,225400,0.0,0
2022-05-04,113.36000061035156,116.77999877929688,112.72000122070312,116.75,346900,0.0,0
2022-05-05,115.48999786376953,116.18000030517578,111.87000274658203,112.80000305175781,179000,0.0,0
2022-05-06,111.69000244140625,111.72000122070312,109.76000213623047,111.2300033569336,331800,0.0,0
2022-05-09,110.0,111.0999984741211,106.66000366210938,107.01000213623047,276700,0.0,0
2022-05-10,107.55999755859375,108.62999725341797,103.94000244140625,104.54000091552734,411800,0.0,0
2022-05-11,104.38999938964844,107.41999816894531,103.51000213623047,104.05999755859375,297800,0.0,0
2022-05-12,103.72000122070312,106.66000366210938,103.25,106.44999694824219,389300,0.0,0
2022-05-13,107.0,108.29000091552734,106.76000213623047,107.51000213623047,226900,0.0,0
2022-05-16,107.29000091552734,108.41999816894531,106.3499984741211,108.33000183105469,202500,0.0,0
2022-05-17,110.12999725341797,110.38999938964844,108.22000122070312,108.95999908447266,311200,0.0,0
2022-05-18,107.98999786376953,108.9000015258789,103.56999969482422,104.06999969482422,325900,0.0,0
2022-05-19,103.38999938964844,104.5999984741211,102.26000213623047,103.48999786376953,357000,0.0,0
2022-05-20,104.9800033569336,105.30000305175781,97.19000244140625,99.72000122070312,796300,0.0,0
2022-05-23,100.94999694824219,104.58999633789062,99.66999816894531,104.22000122070312,545200,0.0,0
2022-05-24,104.5,105.62000274658203,102.81999969482422,104.94999694824219,567400,0.0,0
2022-05-25,103.4800033569336,105.2699966430664,102.4800033569336,104.44999694824219,493400,0.0,0
2022-05-26,105.69999694824219,106.94999694824219,105.27999877929688,106.52999877929688,188200,0.0,0
2022-05-27,106.95999908447266,108.93000030517578,106.95999908447266,108.88999938964844,178000,0.0,0
2022-05-31,108.08000183105469,109.43000030517578,106.3499984741211,107.08999633789062,306100,0.0,0
2022-06-01,107.48999786376953,107.91999816894531,105.62999725341797,107.25,313900,0.0,0
2022-06-02,107.5999984741211,110.02999877929688,106.83000183105469,109.83000183105469,145400,0.0,0
2022-06-03,108.72000122070312,109.76000213623047,108.23999786376953,108.80000305175781,139800,0.0,0
2022-06-06,109.58999633789062,110.80999755859375,108.33000183105469,109.25,207400,0.0,0
2022-06-07,108.63999938964844,110.33999633789062,108.4000015258789,110.18000030517578,132900,0.0,0
2022-06-08,108.95999908447266,109.38999938964844,107.26000213623047,107.70999908447266,157700,0.0,0
2022-06-09,106.7699966430664,107.69999694824219,105.80000305175781,105.83000183105469,193800,0.0,0
2022-06-10,103.58000183105469,105.88999938964844,103.12999725341797,105.19999694824219,266800,0.0,0
2022-06-13,102.87000274658203,103.2300033569336,101.05000305175781,102.01000213623047,252100,0.0,0
2022-06-14,101.61000061035156,102.27999877929688,98.38999938964844,99.5199966430664,227900,0.0,0
2022-06-15,100.30000305175781,101.23999786376953,98.54000091552734,100.37000274658203,283300,0.0,0
2022-06-16,98.88999938964844,98.88999938964844,94.02999877929688,94.7699966430664,620400,0.0,0
2022-06-17,94.48999786376953,98.45999908447266,94.4800033569336,97.5,458500,0.0,0
2022-06-21,97.9800033569336,98.69999694824219,97.08999633789062,97.19000244140625,236100,0.0,0
2022-06-22,96.37000274658203,98.83999633789062,96.23999786376953,98.45999908447266,228200,0.0,0
2022-06-23,98.62000274658203,99.31999969482422,97.16999816894531,98.93000030517578,152100,0.0,0
2022-06-24,100.05000305175781,102.6500015258789,99.66999816894531,102.62000274658203,327300,0.0,0
2022-06-27,102.62000274658203,104.1500015258789,101.98999786376953,103.56999969482422,185200,0.0,0
2022-06-28,104.22000122070312,104.37000274658203,101.9800033569336,102.69999694824219,280200,0.0,0
2022-06-29,102.4800033569336,103.88999938964844,101.33999633789062,103.38999938964844,220900,0.0,0
2022-06-30,102.33000183105469,103.5,101.37000274658203,103.20999908447266,205900,0.0,0
2022-07-01,103.33999633789062,104.66999816894531,102.16000366210938,104.48999786376953,262300,0.0,0
2022-07-05,103.33999633789062,103.33999633789062,100.97000122070312,102.91999816894531,230200,0.0,0
2022-07-06,103.52999877929688,103.55000305175781,101.51000213623047,102.63999938964844,286400,0.0,0
2022-07-07,102.44999694824219,103.30000305175781,101.8499984741211,103.11000061035156,221200,0.0,0
2022-07-08,102.7300033569336,103.02999877929688,100.0,100.01000213623047,208100,0.0,0
2022-07-11,99.80999755859375,100.12000274658203,98.47000122070312,99.55000305175781,186900,0.0,0
2022-07-12,99.47000122070312,101.8499984741211,99.22000122070312,100.51000213623047,284300,0.0,0
2022-07-13,99.7300033569336,101.30999755859375,99.51000213623047,100.66999816894531,202500,0.0,0
2022-07-14,99.58000183105469,99.91000366210938,98.33999633789062,99.30000305175781,199800,0.0,0
2022-07-15,100.80999755859375,100.80999755859375,99.20999908447266,100.01000213623047,195300,0.0,0
2022-07-18,100.56999969482422,100.94999694824219,97.69999694824219,98.0999984741211,179900,0.0,0
2022-07-19,98.55000305175781,101.08999633789062,98.55000305175781,101.02999877929688,635400,0.0,0
